Title=181004_em_PBS_1,867uM_AT532
Comment=
Signature=ISS_Experiment_Ver_1_0
Timestamp=Thu Oct 04 19:38:57 2018
Product=Vinci2
SoftwareVersion=BETA.2.4
BuildNumber=234
RealTimeStart=26479.0976724

AcquisitionType=Photon Counting
AcquisitionFormat=L
AcquisitionSide=Right
Detector Gains=(0.0, 0.0)

Measurable=Intensity
MaxIterations=10

RightEmissionWavelengthBandwidth=8.0
ExcitationWavelengthBandwidth=8.0
Visualization=Y:Intensity,X:EmissionWavelength,PlotType:2D


EmissionWavelength=type:numeric,unit:nm,from:450.0,to:800.0,step:1.0
ExcitationWavelength=type:numeric,unit:nm,fixed:532.0

Space=EmissionWavelength
Columns=EmissionWavelength,Intensity,IntensityStdError,RealTime
[Data]
        450.00	     38.725273	     1.3131890	     26485.175
        451.00	     42.251544	     1.7485331	     26486.655
        452.00	     44.177129	     1.4173920	     26487.865
        453.00	     46.990663	     1.6790874	     26489.075
        454.00	     45.848067	     2.5613780	     26490.285
        455.00	     43.334139	     1.3565025	     26491.495
        456.00	     46.721161	     1.5850000	     26492.704
        457.00	     47.201184	     2.1439089	     26493.915
        458.00	     49.049615	     1.9253144	     26495.125
        459.00	     49.937596	     1.3644689	     26496.335
        460.00	     47.160546	     1.9311592	     26497.545
        461.00	     51.558547	     2.7507788	     26498.754
        462.00	     49.787367	     1.6827399	     26499.964
        463.00	     48.474079	     1.8547118	     26501.175
        464.00	     50.099634	     1.7634916	     26502.385
        465.00	     49.235323	     2.0114894	     26503.595
        466.00	     50.547059	     2.0098191	     26504.804
        467.00	     54.756591	     1.4790600	     26506.015
        468.00	     56.508546	     3.0600165	     26507.224
        469.00	     55.889487	     2.0536781	     26508.435
        470.00	     55.265771	     1.5766346	     26509.644
        471.00	     55.162381	     2.6237450	     26510.854
        472.00	     59.672139	     3.2084472	     26512.064
        473.00	     59.249448	     2.7754762	     26513.274
        474.00	     65.592786	     2.5824946	     26514.484
        475.00	     60.675796	     1.7152649	     26515.694
        476.00	     59.099910	     2.8750511	     26516.904
        477.00	     64.210456	     2.6992895	     26518.114
        478.00	     65.961984	     4.4278022	     26519.324
        479.00	     68.092102	     1.6573718	     26520.534
        480.00	     66.765189	     2.6726234	     26521.744
        481.00	     69.543710	     2.0312846	     26522.954
        482.00	     71.794947	     2.6614296	     26524.164
        483.00	     71.781934	     2.6306255	     26525.374
        484.00	     79.929359	     2.4529987	     26526.584
        485.00	     74.764308	     2.8799478	     26527.794
        486.00	     84.214757	     2.9628254	     26529.004
        487.00	     90.163587	     3.0400985	     26530.214
        488.00	     89.138866	     2.8366444	     26531.424
        489.00	     89.355810	     3.9234316	     26532.634
        490.00	     101.88377	     3.4223713	     26533.844
        491.00	     105.06696	     2.4378393	     26535.054
        492.00	     116.93889	     3.0263862	     26536.264
        493.00	     126.64117	     2.7468697	     26537.474
        494.00	     135.96772	     1.5833636	     26538.684
        495.00	     152.30801	     2.6004983	     26539.894
        496.00	     171.16106	     3.9726095	     26541.104
        497.00	     194.27560	     3.8418638	     26542.314
        498.00	     211.93985	     7.1143403	     26543.524
        499.00	     244.16620	     3.2136219	     26544.734
        500.00	     273.71773	     4.1500572	     26545.954
        501.00	     307.20543	     4.7232591	     26547.153
        502.00	     352.03137	     5.8258386	     26548.364
        503.00	     423.33783	     6.8050552	     26549.574
        504.00	     469.12476	     4.5368595	     26550.784
        505.00	     543.59685	     6.9778969	     26551.993
        506.00	     608.73249	     5.2725493	     26553.203
        507.00	     704.35864	     8.0643959	     26554.414
        508.00	     811.23293	     8.5372488	     26555.634
        509.00	     935.20519	     8.9849880	     26556.834
        510.00	     1081.0217	     8.3013885	     26558.044
        511.00	     1262.3595	     10.905003	     26559.253
        512.00	     1492.0230	     13.977846	     26560.464
        513.00	     1761.6650	     12.389121	     26561.674
        514.00	     2099.7133	     5.8468823	     26562.884
        515.00	     2513.3704	     14.012868	     26564.094
        516.00	     3026.5176	     15.772709	     26565.303
        517.00	     3644.5385	     12.554129	     26566.514
        518.00	     4434.4763	     16.627012	     26567.724
        519.00	     5416.9420	     22.354296	     26568.933
        520.00	     6572.8426	     21.952710	     26570.143
        521.00	     8048.5615	     24.086093	     26571.353
        522.00	     9814.7314	     21.999320	     26572.563
        523.00	     12042.880	     40.209534	     26573.773
        524.00	     14573.062	     49.309100	     26574.983
        525.00	     17619.124	     49.323114	     26576.194
        526.00	     21265.454	     57.261522	     26577.403
        527.00	     25539.289	     22.511296	     26578.613
        528.00	     30598.160	     38.449848	     26579.823
        529.00	     36236.063	     37.332556	     26581.033
        530.00	     42607.561	     35.247576	     26582.243
        531.00	     49635.678	     42.498377	     26583.453
        532.00	     57349.667	     44.457155	     26584.663
        533.00	     65597.650	     51.765401	     26585.873
        534.00	     74184.204	     51.427234	     26587.083
        535.00	     82968.063	     67.205624	     26588.293
        536.00	     91879.515	     66.726291	     26589.502
        537.00	     100730.07	     76.959959	     26590.713
        538.00	     109136.01	     63.115949	     26591.923
        539.00	     117201.90	     95.981699	     26593.133
        540.00	     124682.98	     77.614441	     26594.343
        541.00	     131189.75	     78.277289	     26595.553
        542.00	     137059.19	     97.712179	     26596.763
        543.00	     142701.23	     77.913386	     26597.973
        544.00	     147935.12	     51.980735	     26599.183
        545.00	     152339.62	     45.295730	     26600.393
        546.00	     155773.48	     70.440670	     26601.602
        547.00	     158965.03	     51.262791	     26602.813
        548.00	     161566.84	     87.085236	     26604.023
        549.00	     164066.15	     65.752630	     26605.233
        550.00	     165856.68	     97.071342	     26606.443
        551.00	     167308.82	     35.432518	     26607.653
        552.00	     168725.20	     50.928882	     26608.863
        553.00	     169751.12	     35.774134	     26610.073
        554.00	     170369.86	     54.354830	     26611.283
        555.00	     170897.57	     62.884963	     26612.492
        556.00	     171304.93	     53.101388	     26613.702
        557.00	     171345.89	     54.607120	     26614.913
        558.00	     171043.50	     65.200187	     26616.123
        559.00	     170825.86	     62.544195	     26617.333
        560.00	     170145.15	     92.393758	     26618.543
        561.00	     169123.85	     61.519593	     26619.752
        562.00	     167828.60	     58.423807	     26620.963
        563.00	     166272.53	     106.53794	     26622.173
        564.00	     164572.19	     65.622627	     26623.383
        565.00	     162556.28	     78.711937	     26624.593
        566.00	     160711.09	     70.053094	     26625.802
        567.00	     157963.20	     75.305352	     26627.013
        568.00	     155166.06	     56.423859	     26628.223
        569.00	     152595.56	     70.555725	     26629.433
        570.00	     149503.56	     127.33748	     26630.642
        571.00	     146360.61	     85.099387	     26631.852
        572.00	     142963.32	     76.730590	     26633.063
        573.00	     139770.16	     83.377159	     26634.273
        574.00	     136349.22	     59.917644	     26635.482
        575.00	     133020.89	     108.43982	     26636.692
        576.00	     129373.73	     72.549798	     26637.903
        577.00	     126205.47	     71.718106	     26639.112
        578.00	     123087.12	     64.840915	     26640.322
        579.00	     119769.86	     49.604739	     26641.532
        580.00	     116948.04	     132.03948	     26642.742
        581.00	     113930.18	     105.02397	     26643.952
        582.00	     111314.34	     82.660430	     26645.162
        583.00	     108663.99	     95.606970	     26646.372
        584.00	     106374.26	     128.42243	     26647.582
        585.00	     103985.63	     111.70435	     26648.792
        586.00	     101995.72	     82.109286	     26650.002
        587.00	     99817.701	     115.02129	     26651.212
        588.00	     98143.617	     99.241271	     26652.462
        589.00	     96500.002	     93.260056	     26653.632
        590.00	     95004.826	     112.03166	     26654.842
        591.00	     93418.935	     101.62580	     26656.052
        592.00	     92044.792	     122.22953	     26657.262
        593.00	     90581.371	     95.487907	     26658.472
        594.00	     89179.412	     71.193363	     26659.682
        595.00	     87915.091	     74.837943	     26660.892
        596.00	     86802.765	     104.55696	     26662.101
        597.00	     85749.745	     74.225325	     26663.312
        598.00	     84250.548	     129.62441	     26664.522
        599.00	     83096.741	     82.166512	     26668.811
        600.00	     81738.365	     90.122650	     26670.022
        601.00	     80361.866	     92.975374	     26671.232
        602.00	     78819.806	     113.81825	     26672.441
        603.00	     77331.242	     91.247617	     26673.652
        604.00	     75828.511	     85.013544	     26674.862
        605.00	     74259.584	     90.554132	     26676.072
        606.00	     72834.481	     96.581731	     26677.282
        607.00	     70934.444	     86.439315	     26678.492
        608.00	     69112.192	     92.710084	     26679.702
        609.00	     67475.431	     71.993062	     26680.911
        610.00	     65787.145	     80.122789	     26682.122
        611.00	     63888.805	     91.902507	     26683.332
        612.00	     61944.135	     94.010796	     26684.542
        613.00	     60178.072	     78.142604	     26685.752
        614.00	     58362.430	     86.679592	     26686.961
        615.00	     56460.220	     61.648161	     26688.172
        616.00	     54583.000	     111.03967	     26689.381
        617.00	     52786.217	     138.57905	     26690.592
        618.00	     51039.943	     64.405028	     26691.801
        619.00	     49359.798	     65.017080	     26693.011
        620.00	     47628.321	     86.367545	     26694.221
        621.00	     45964.436	     65.241669	     26695.431
        622.00	     44312.142	     111.98718	     26696.641
        623.00	     42783.961	     48.678811	     26697.851
        624.00	     41176.011	     55.239450	     26699.061
        625.00	     39667.506	     83.425029	     26700.271
        626.00	     38237.298	     39.640584	     26701.481
        627.00	     36888.472	     50.114263	     26702.691
        628.00	     35424.102	     53.765267	     26703.901
        629.00	     34158.728	     70.340086	     26705.111
        630.00	     33008.521	     67.533526	     26706.321
        631.00	     31640.090	     55.026943	     26707.531
        632.00	     30432.878	     58.878150	     26708.741
        633.00	     29369.132	     88.059807	     26709.951
        634.00	     28253.444	     63.386921	     26711.161
        635.00	     27122.978	     55.624155	     26712.371
        636.00	     26209.545	     67.024454	     26713.581
        637.00	     25398.568	     69.124935	     26714.791
        638.00	     24420.384	     87.767215	     26716.001
        639.00	     23510.858	     64.503613	     26717.211
        640.00	     22761.716	     68.522895	     26718.421
        641.00	     22008.550	     67.867628	     26719.631
        642.00	     21157.076	     52.886831	     26720.841
        643.00	     20525.915	     62.479343	     26722.051
        644.00	     19784.656	     33.054913	     26723.260
        645.00	     19143.440	     57.261730	     26724.471
        646.00	     18633.725	     70.802241	     26725.681
        647.00	     18087.873	     85.005009	     26726.891
        648.00	     17405.870	     79.351733	     26728.101
        649.00	     16863.920	     53.152552	     26729.310
        650.00	     16456.668	     58.805670	     26730.521
        651.00	     16035.454	     35.543383	     26731.731
        652.00	     15651.164	     50.330986	     26732.941
        653.00	     15069.017	     25.571908	     26734.151
        654.00	     14760.494	     65.796157	     26735.360
        655.00	     14304.478	     80.792761	     26736.571
        656.00	     13856.678	     58.905628	     26737.781
        657.00	     13620.932	     73.628960	     26738.991
        658.00	     13245.448	     54.843836	     26740.201
        659.00	     12722.769	     39.164828	     26741.411
        660.00	     12423.921	     36.658382	     26742.621
        661.00	     12135.262	     47.080593	     26743.831
        662.00	     11733.385	     54.340781	     26745.041
        663.00	     11498.278	     83.094975	     26746.251
        664.00	     11125.310	     34.291150	     26747.461
        665.00	     10778.417	     62.465056	     26748.671
        666.00	     10414.690	     41.779502	     26749.881
        667.00	     10211.365	     46.749630	     26751.091
        668.00	     9833.2019	     57.770157	     26752.300
        669.00	     9636.3441	     50.924935	     26753.511
        670.00	     9343.2633	     31.669697	     26754.720
        671.00	     9059.7272	     69.758727	     26755.930
        672.00	     8703.6076	     56.590234	     26757.140
        673.00	     8548.0625	     52.288360	     26758.350
        674.00	     8252.1849	     38.487291	     26759.561
        675.00	     7991.7219	     47.379288	     26760.770
        676.00	     7740.1953	     56.538820	     26761.980
        677.00	     7530.1346	     61.296562	     26763.190
        678.00	     7265.4745	     31.500216	     26764.400
        679.00	     7138.1018	     44.188409	     26765.610
        680.00	     6856.3104	     25.403434	     26766.820
        681.00	     6618.0714	     46.302400	     26768.030
        682.00	     6454.7168	     59.598672	     26769.240
        683.00	     6143.8447	     39.132220	     26770.450
        684.00	     6070.2306	     41.771226	     26771.660
        685.00	     5866.4514	     41.081487	     26772.870
        686.00	     5642.6011	     30.478297	     26774.080
        687.00	     5438.9481	     63.995586	     26775.290
        688.00	     5247.2932	     30.573476	     26776.500
        689.00	     5165.9811	     29.236393	     26777.709
        690.00	     4872.8668	     47.888720	     26778.920
        691.00	     4643.0535	     31.929851	     26780.130
        692.00	     4574.3341	     33.308105	     26781.340
        693.00	     4471.6476	     42.197716	     26782.550
        694.00	     4390.2166	     30.633181	     26783.760
        695.00	     4185.5958	     45.323440	     26784.970
        696.00	     3997.8567	     35.706820	     26786.180
        697.00	     3871.5036	     37.142965	     26787.390
        698.00	     3767.0910	     42.965886	     26788.600
        699.00	     3637.0203	     25.830358	     26789.809
        700.00	     3539.1465	     56.822019	     26791.020
        701.00	     3374.7003	     42.706096	     26792.230
        702.00	     3306.0495	     47.202531	     26793.440
        703.00	     3248.3100	     33.142000	     26794.649
        704.00	     3144.5588	     52.411176	     26795.859
        705.00	     3108.4593	     47.190107	     26797.070
        706.00	     2919.6698	     46.964451	     26798.280
        707.00	     2853.5424	     41.650939	     26799.490
        708.00	     2730.1207	     51.687751	     26800.700
        709.00	     2715.4488	     39.617231	     26801.909
        710.00	     2614.0064	     47.474522	     26803.120
        711.00	     2525.4810	     30.452552	     26804.330
        712.00	     2495.7339	     30.924661	     26805.540
        713.00	     2407.3567	     30.683922	     26806.750
        714.00	     2327.4449	     32.221287	     26807.959
        715.00	     2278.1526	     24.261599	     26809.170
        716.00	     2260.8346	     27.176922	     26810.379
        717.00	     2140.0187	     27.143909	     26811.590
        718.00	     2085.2915	     57.225833	     26812.799
        719.00	     2147.3302	     39.560869	     26814.009
        720.00	     1988.5885	     41.458462	     26815.219
        721.00	     1938.5474	     43.294906	     26816.429
        722.00	     1883.6964	     35.798619	     26817.639
        723.00	     1939.9410	     37.464214	     26818.849
        724.00	     1858.9711	     29.517687	     26820.059
        725.00	     1758.7401	     51.782422	     26821.269
        726.00	     1814.3720	     54.505377	     26822.479
        727.00	     1714.1022	     44.512828	     26823.689
        728.00	     1593.7214	     30.161001	     26824.899
        729.00	     1575.7771	     30.401155	     26826.109
        730.00	     1599.0030	     47.778708	     26827.319
        731.00	     1659.5229	     31.579730	     26828.529
        732.00	     1526.8186	     33.355201	     26829.739
        733.00	     1544.3855	     38.033688	     26830.949
        734.00	     1431.8729	     25.487714	     26832.159
        735.00	     1426.0928	     27.145209	     26833.369
        736.00	     1451.5492	     29.453257	     26834.579
        737.00	     1430.5491	     29.181859	     26835.789
        738.00	     1292.7008	     48.515656	     26836.999
        739.00	     1253.8062	     61.245290	     26838.209
        740.00	     1238.9158	     21.731757	     26839.419
        741.00	     1268.2787	     25.233514	     26840.629
        742.00	     1240.2110	     43.138088	     26841.839
        743.00	     1196.7754	     32.716904	     26843.049
        744.00	     1076.1703	     42.996335	     26844.258
        745.00	     1169.8302	     35.054136	     26845.469
        746.00	     1078.8984	     47.991461	     26846.679
        747.00	     1074.3436	     53.845185	     26847.889
        748.00	     1048.0136	     31.959572	     26852.179
        749.00	     1060.5132	     58.504003	     26853.388
        750.00	     1097.6936	     37.625372	     26854.599
        751.00	     1002.4505	     51.420450	     26855.809
        752.00	     1079.5594	     40.348557	     26857.019
        753.00	     1069.0730	     28.394906	     26858.228
        754.00	     944.20785	     25.158220	     26859.439
        755.00	     912.30526	     40.342340	     26860.649
        756.00	     944.05264	     51.907657	     26861.859
        757.00	     894.52225	     52.969164	     26863.069
        758.00	     881.22593	     47.461772	     26864.279
        759.00	     908.61574	     35.144993	     26865.489
        760.00	     903.55669	     42.197456	     26866.699
        761.00	     901.48964	     43.460362	     26867.909
        762.00	     823.40161	     47.361334	     26869.119
        763.00	     844.32886	     52.307225	     26870.329
        764.00	     780.87258	     66.664127	     26871.539
        765.00	     732.72382	     35.572850	     26872.748
        766.00	     778.37935	     25.640113	     26873.959
        767.00	     759.95163	     48.672738	     26875.168
        768.00	     781.03834	     44.408674	     26876.378
        769.00	     729.46810	     39.196014	     26877.589
        770.00	     624.11441	     47.903302	     26878.798
        771.00	     704.50526	     41.214809	     26880.008
        772.00	     659.15813	     40.516153	     26881.218
        773.00	     696.56816	     50.154512	     26882.428
        774.00	     597.67191	     39.072214	     26883.638
        775.00	     655.12409	     41.013056	     26884.848
        776.00	     698.74638	     37.819211	     26886.058
        777.00	     661.76428	     54.086188	     26887.268
        778.00	     550.14745	     47.494055	     26888.478
        779.00	     556.80109	     27.588607	     26889.688
        780.00	     562.47270	     39.413603	     26890.898
        781.00	     597.13478	     38.685374	     26892.108
        782.00	     581.14735	     60.754772	     26893.318
        783.00	     562.59984	     40.427335	     26894.528
        784.00	     586.72566	     41.478514	     26895.738
        785.00	     576.92503	     67.003131	     26896.948
        786.00	     525.67248	     35.106253	     26898.158
        787.00	     439.93432	     48.893464	     26899.368
        788.00	     539.43630	     30.027669	     26900.578
        789.00	     547.81409	     40.220443	     26901.788
        790.00	     509.54806	     45.143669	     26902.998
        791.00	     490.98949	     51.031590	     26904.208
        792.00	     471.38058	     47.527596	     26905.418
        793.00	     507.24424	     54.092733	     26906.628
        794.00	     516.80000	     53.995885	     26907.838
        795.00	     489.27745	     45.551124	     26909.048
        796.00	     376.50597	     57.476235	     26910.258
        797.00	     359.36140	     47.324295	     26911.468
        798.00	     416.48160	     33.898058	     26912.678
        799.00	     452.28165	     55.789978	     26913.887
        800.00	     431.20871	     34.110891	     26915.098
