Title=181004_em_PBS_2,398uM_ST512
Comment=
Signature=ISS_Experiment_Ver_1_0
Timestamp=Thu Oct 04 19:03:13 2018
Product=Vinci2
SoftwareVersion=BETA.2.4
BuildNumber=234
RealTimeStart=24335.5754884

AcquisitionType=Photon Counting
AcquisitionFormat=L
AcquisitionSide=Right
Detector Gains=(0.0, 0.0)

Measurable=Intensity
MaxIterations=10

RightEmissionWavelengthBandwidth=8.0
ExcitationWavelengthBandwidth=8.0
Visualization=Y:Intensity,X:EmissionWavelength,PlotType:2D


EmissionWavelength=type:numeric,unit:nm,from:450.0,to:800.0,step:1.0
ExcitationWavelength=type:numeric,unit:nm,fixed:509.0

Space=EmissionWavelength
Columns=EmissionWavelength,Intensity,IntensityStdError,RealTime
[Data]
        450.00	     71.816856	     2.3411707	     24341.471
        451.00	     70.207262	     1.8557499	     24342.901
        452.00	     77.681105	     2.6021677	     24344.111
        453.00	     77.633400	     2.8324143	     24345.321
        454.00	     75.122678	     2.3313359	     24346.531
        455.00	     75.724527	     1.0796793	     24347.740
        456.00	     79.694666	     2.8869339	     24348.951
        457.00	     83.342457	     2.4414253	     24350.161
        458.00	     83.550392	     3.3523447	     24351.371
        459.00	     82.743896	     1.5571103	     24352.581
        460.00	     85.106729	     2.5535332	     24353.790
        461.00	     91.181997	     1.9504321	     24355.001
        462.00	     92.124112	     3.2835705	     24356.211
        463.00	     94.600025	     2.6948755	     24357.420
        464.00	     98.923708	     1.4789056	     24358.630
        465.00	     105.93386	     2.2251332	     24359.840
        466.00	     110.23707	     2.4131891	     24361.060
        467.00	     123.38154	     2.9297879	     24362.260
        468.00	     132.80619	     2.5340671	     24363.470
        469.00	     132.47982	     2.0288545	     24364.680
        470.00	     150.33073	     3.6777967	     24365.890
        471.00	     150.73769	     2.8158508	     24367.100
        472.00	     174.82293	     2.8506978	     24368.310
        473.00	     187.48564	     3.5576873	     24369.520
        474.00	     208.86049	     2.8982381	     24370.730
        475.00	     229.76708	     4.9449420	     24371.939
        476.00	     248.30070	     3.7831495	     24373.150
        477.00	     284.66830	     3.2629491	     24374.360
        478.00	     318.69930	     4.5661547	     24375.570
        479.00	     361.77604	     5.4320681	     24376.780
        480.00	     415.06284	     4.5165963	     24377.990
        481.00	     479.89923	     4.5214469	     24379.200
        482.00	     544.15536	     5.6800978	     24380.410
        483.00	     642.90204	     5.2181263	     24381.620
        484.00	     737.89110	     6.3203617	     24382.830
        485.00	     863.25170	     7.3638087	     24384.039
        486.00	     1045.4774	     5.5325596	     24385.250
        487.00	     1206.3925	     8.2652404	     24386.460
        488.00	     1447.6139	     10.311106	     24387.670
        489.00	     1732.1472	     12.344142	     24388.879
        490.00	     2112.2207	     6.8585222	     24390.089
        491.00	     2541.6981	     11.335630	     24391.300
        492.00	     3099.8641	     12.149346	     24392.510
        493.00	     3742.3967	     13.393990	     24393.720
        494.00	     4580.2440	     19.623155	     24394.930
        495.00	     5595.0473	     13.193683	     24396.139
        496.00	     6794.6833	     14.908081	     24397.350
        497.00	     8266.2781	     29.795907	     24398.560
        498.00	     10034.292	     19.922884	     24399.770
        499.00	     12201.993	     22.189518	     24400.980
        500.00	     14903.290	     31.315378	     24402.189
        501.00	     17995.841	     25.443194	     24403.400
        502.00	     21569.367	     44.105264	     24404.610
        503.00	     25828.162	     36.473111	     24405.820
        504.00	     30595.587	     35.921782	     24407.030
        505.00	     36149.331	     55.055640	     24408.239
        506.00	     42224.166	     59.022473	     24409.450
        507.00	     49221.794	     50.651000	     24410.660
        508.00	     56860.372	     73.931930	     24411.870
        509.00	     64483.092	     72.108091	     24413.079
        510.00	     73134.076	     58.548808	     24414.289
        511.00	     81601.235	     81.981863	     24415.499
        512.00	     90309.456	     51.099016	     24416.709
        513.00	     98849.724	     61.467233	     24417.919
        514.00	     106867.35	     54.240665	     24419.129
        515.00	     114942.33	     48.062198	     24420.339
        516.00	     122123.52	     73.240764	     24421.550
        517.00	     128831.95	     42.236565	     24422.759
        518.00	     134636.41	     51.426312	     24423.969
        519.00	     139532.41	     61.195896	     24425.179
        520.00	     143427.54	     64.649338	     24426.389
        521.00	     146926.21	     59.725473	     24427.609
        522.00	     149657.08	     65.724912	     24428.809
        523.00	     152227.69	     38.108333	     24430.019
        524.00	     154198.36	     36.862066	     24431.229
        525.00	     155565.16	     56.567145	     24432.439
        526.00	     156809.83	     25.317925	     24433.649
        527.00	     157956.75	     38.947314	     24434.859
        528.00	     159082.29	     53.216279	     24436.069
        529.00	     159720.87	     53.444440	     24437.279
        530.00	     160418.43	     40.699942	     24438.488
        531.00	     160779.14	     14.859358	     24439.699
        532.00	     161236.48	     43.453972	     24440.909
        533.00	     161558.38	     53.694572	     24442.119
        534.00	     161628.17	     49.271917	     24443.329
        535.00	     161721.39	     48.023851	     24444.538
        536.00	     161816.00	     40.038542	     24445.749
        537.00	     161608.03	     49.457336	     24446.959
        538.00	     161277.31	     57.368525	     24448.169
        539.00	     160801.46	     47.489236	     24449.378
        540.00	     160213.36	     43.444720	     24450.588
        541.00	     159479.07	     49.935420	     24451.799
        542.00	     158345.30	     55.270043	     24453.009
        543.00	     157205.16	     47.611336	     24454.219
        544.00	     155850.57	     47.882763	     24455.429
        545.00	     154184.28	     66.911198	     24456.638
        546.00	     152483.06	     64.956885	     24457.849
        547.00	     150389.51	     60.192041	     24459.059
        548.00	     148407.51	     80.111589	     24460.269
        549.00	     146241.12	     82.882957	     24461.479
        550.00	     143900.83	     63.053114	     24462.688
        551.00	     141169.88	     65.764381	     24463.899
        552.00	     138578.08	     59.903559	     24465.109
        553.00	     136045.92	     50.952118	     24466.319
        554.00	     133379.12	     104.53029	     24467.529
        555.00	     130763.98	     83.345399	     24468.738
        556.00	     127985.61	     76.545112	     24469.949
        557.00	     125452.99	     74.917541	     24471.159
        558.00	     122801.48	     103.46837	     24472.369
        559.00	     120628.09	     76.737985	     24473.579
        560.00	     117881.26	     78.456014	     24474.788
        561.00	     115806.64	     84.541141	     24475.998
        562.00	     113565.93	     86.661558	     24477.208
        563.00	     111276.20	     51.227277	     24478.418
        564.00	     109358.39	     88.893932	     24479.628
        565.00	     107227.21	     94.767957	     24480.848
        566.00	     105525.43	     117.99474	     24482.048
        567.00	     103576.53	     89.464054	     24483.258
        568.00	     101823.42	     96.391708	     24484.468
        569.00	     100168.85	     85.297412	     24485.678
        570.00	     98234.903	     116.63321	     24486.888
        571.00	     96575.221	     68.927834	     24488.098
        572.00	     94742.695	     100.12382	     24489.308
        573.00	     92864.946	     62.591673	     24490.518
        574.00	     90811.097	     91.086875	     24491.728
        575.00	     89357.968	     75.329758	     24492.938
        576.00	     87347.646	     82.719279	     24494.148
        577.00	     85389.728	     97.530705	     24495.358
        578.00	     83476.302	     84.359287	     24496.568
        579.00	     81340.992	     50.093793	     24497.778
        580.00	     79549.504	     91.619077	     24498.988
        581.00	     77426.024	     94.386140	     24500.198
        582.00	     75188.954	     44.669797	     24501.408
        583.00	     73105.309	     70.183956	     24502.618
        584.00	     71073.040	     69.183867	     24503.829
        585.00	     68980.351	     59.874871	     24505.037
        586.00	     66744.058	     139.17733	     24506.248
        587.00	     64537.301	     96.980674	     24507.458
        588.00	     62369.954	     65.014380	     24508.668
        589.00	     60477.318	     44.116028	     24509.878
        590.00	     58243.946	     73.466626	     24511.087
        591.00	     56208.427	     65.194387	     24512.298
        592.00	     54265.855	     59.039152	     24513.508
        593.00	     52171.013	     58.800248	     24514.718
        594.00	     50289.457	     99.892290	     24515.928
        595.00	     48489.868	     65.872179	     24517.137
        596.00	     46674.807	     90.029532	     24518.348
        597.00	     45150.696	     67.196984	     24519.558
        598.00	     43233.082	     60.351260	     24520.768
        599.00	     41631.124	     62.454863	     24525.057
        600.00	     40086.691	     77.654506	     24526.268
        601.00	     38415.767	     64.347111	     24527.478
        602.00	     37127.597	     67.668355	     24528.688
        603.00	     35568.495	     68.578561	     24529.898
        604.00	     34290.022	     58.474753	     24531.107
        605.00	     32892.778	     74.929167	     24532.317
        606.00	     31679.603	     68.850767	     24533.528
        607.00	     30300.293	     54.218016	     24534.738
        608.00	     29228.804	     39.333922	     24535.947
        609.00	     28244.116	     32.808385	     24537.157
        610.00	     27210.210	     61.898168	     24538.367
        611.00	     26145.108	     84.209036	     24539.577
        612.00	     25329.600	     50.030873	     24540.788
        613.00	     24325.921	     81.566105	     24541.997
        614.00	     23396.259	     55.650066	     24543.207
        615.00	     22703.757	     64.391663	     24544.417
        616.00	     21923.912	     64.647878	     24545.627
        617.00	     21115.175	     35.657099	     24546.838
        618.00	     20539.864	     37.261908	     24548.047
        619.00	     19661.463	     46.986524	     24549.257
        620.00	     19150.282	     35.886335	     24550.467
        621.00	     18435.668	     54.750719	     24551.677
        622.00	     17846.809	     40.730722	     24552.887
        623.00	     17325.217	     38.490041	     24554.097
        624.00	     16733.617	     47.142617	     24555.307
        625.00	     16193.644	     51.133389	     24556.517
        626.00	     15766.715	     56.828509	     24557.727
        627.00	     15294.590	     48.784437	     24558.937
        628.00	     14707.610	     41.750747	     24560.147
        629.00	     14355.842	     49.753327	     24561.357
        630.00	     13937.733	     69.380324	     24562.567
        631.00	     13452.555	     32.806665	     24563.777
        632.00	     13049.405	     57.229148	     24564.987
        633.00	     12620.088	     65.145156	     24566.197
        634.00	     12067.422	     45.334060	     24567.407
        635.00	     11782.525	     15.379290	     24568.617
        636.00	     11388.787	     34.118359	     24569.826
        637.00	     11052.899	     43.028964	     24571.037
        638.00	     10643.444	     44.378080	     24572.247
        639.00	     10354.451	     44.665635	     24573.457
        640.00	     9996.4905	     35.263135	     24574.667
        641.00	     9611.0469	     52.670204	     24575.877
        642.00	     9340.7604	     40.380556	     24577.087
        643.00	     9009.3842	     35.610128	     24578.297
        644.00	     8690.8555	     34.597030	     24579.506
        645.00	     8422.8822	     45.405019	     24580.717
        646.00	     8176.1171	     28.397694	     24581.927
        647.00	     7829.9159	     51.060154	     24583.137
        648.00	     7589.5392	     32.181275	     24584.347
        649.00	     7270.1359	     29.334997	     24585.556
        650.00	     7114.5523	     38.998844	     24586.767
        651.00	     6758.7968	     43.006663	     24587.977
        652.00	     6545.1868	     32.209854	     24589.187
        653.00	     6344.4334	     45.593683	     24590.397
        654.00	     6096.2817	     49.518504	     24591.606
        655.00	     5857.7230	     38.025619	     24592.817
        656.00	     5662.3494	     46.288362	     24594.027
        657.00	     5477.6923	     23.682788	     24595.237
        658.00	     5255.0122	     31.652745	     24596.446
        659.00	     5091.5838	     38.376150	     24597.656
        660.00	     4932.4225	     15.290348	     24598.866
        661.00	     4822.5638	     30.908152	     24600.076
        662.00	     4563.1507	     25.847223	     24601.287
        663.00	     4439.9965	     35.991123	     24602.496
        664.00	     4318.3678	     31.836015	     24603.707
        665.00	     4157.3466	     26.732506	     24604.916
        666.00	     4031.0006	     27.056037	     24606.126
        667.00	     3917.7865	     25.773606	     24607.337
        668.00	     3797.1993	     26.463676	     24608.546
        669.00	     3682.3430	     27.373717	     24609.756
        670.00	     3542.5687	     32.424345	     24610.976
        671.00	     3482.2064	     16.972483	     24612.176
        672.00	     3266.7030	     26.104689	     24613.396
        673.00	     3162.3876	     37.917217	     24614.596
        674.00	     3117.0895	     40.368193	     24615.806
        675.00	     3029.3782	     46.975517	     24617.056
        676.00	     2949.3412	     41.908141	     24618.237
        677.00	     2871.5213	     34.944850	     24619.436
        678.00	     2784.5392	     36.374840	     24620.646
        679.00	     2634.6152	     36.382783	     24621.855
        680.00	     2620.5883	     42.345519	     24623.066
        681.00	     2523.0402	     22.614437	     24624.276
        682.00	     2438.9750	     24.685900	     24625.486
        683.00	     2402.1355	     6.6924806	     24626.696
        684.00	     2312.8017	     41.323722	     24627.906
        685.00	     2285.8474	     41.156253	     24629.116
        686.00	     2219.8292	     33.363974	     24630.325
        687.00	     2181.2664	     18.837548	     24631.536
        688.00	     2081.2176	     28.144459	     24632.746
        689.00	     2028.2932	     27.338937	     24633.956
        690.00	     1976.3916	     31.215016	     24635.166
        691.00	     1959.2246	     27.787362	     24636.376
        692.00	     1900.4161	     16.882400	     24637.586
        693.00	     1872.3253	     23.913280	     24638.796
        694.00	     1748.5654	     15.063424	     24640.006
        695.00	     1675.0869	     28.464774	     24641.216
        696.00	     1660.9935	     21.654658	     24642.426
        697.00	     1656.1931	     36.181067	     24643.636
        698.00	     1596.2211	     24.378346	     24644.846
        699.00	     1534.9350	     30.522978	     24646.055
        700.00	     1525.4859	     38.863196	     24647.266
        701.00	     1420.0254	     28.475918	     24648.476
        702.00	     1414.1498	     21.278161	     24649.686
        703.00	     1339.0345	     21.225213	     24650.896
        704.00	     1370.4621	     29.907310	     24652.106
        705.00	     1354.5895	     45.950723	     24653.316
        706.00	     1264.5838	     29.986354	     24654.526
        707.00	     1310.7321	     40.349367	     24655.736
        708.00	     1249.2758	     24.761718	     24656.945
        709.00	     1258.1699	     36.123904	     24658.155
        710.00	     1163.8679	     34.240998	     24659.366
        711.00	     1150.1712	     40.366552	     24660.575
        712.00	     1197.1899	     19.819625	     24661.795
        713.00	     1166.8923	     25.408030	     24662.995
        714.00	     1142.6940	     16.070326	     24664.205
        715.00	     1089.8140	     25.285742	     24665.415
        716.00	     1100.3465	     34.245280	     24666.625
        717.00	     1086.2358	     28.980084	     24667.835
        718.00	     1025.0651	     14.205645	     24669.045
        719.00	     1005.9275	     38.615260	     24670.255
        720.00	     923.96096	     40.578416	     24671.465
        721.00	     1038.0095	     42.162348	     24672.685
        722.00	     969.49013	     27.200824	     24673.885
        723.00	     862.08203	     23.087600	     24675.095
        724.00	     930.18074	     26.699753	     24676.305
        725.00	     909.19417	     25.260386	     24677.515
        726.00	     873.03019	     23.094075	     24678.725
        727.00	     843.24526	     35.104418	     24679.935
        728.00	     808.67151	     31.372468	     24681.145
        729.00	     797.97531	     36.220307	     24682.355
        730.00	     833.47036	     30.045271	     24683.575
        731.00	     794.93955	     33.787983	     24684.775
        732.00	     783.72523	     19.095493	     24685.985
        733.00	     768.02730	     37.191037	     24687.195
        734.00	     752.96072	     34.987390	     24688.406
        735.00	     815.78381	     35.884013	     24689.615
        736.00	     720.39540	     34.626399	     24690.825
        737.00	     727.63940	     25.800161	     24692.035
        738.00	     751.45146	     24.112259	     24693.245
        739.00	     720.46431	     32.780896	     24694.455
        740.00	     724.19503	     24.173543	     24695.664
        741.00	     677.18452	     51.687921	     24696.875
        742.00	     622.13275	     31.364318	     24698.085
        743.00	     635.87262	     26.182837	     24699.295
        744.00	     611.97633	     31.086517	     24700.505
        745.00	     690.26082	     37.022882	     24701.715
        746.00	     640.29860	     22.368805	     24702.925
        747.00	     645.76187	     29.825601	     24704.135
        748.00	     580.28088	     27.906167	     24708.425
        749.00	     643.90065	     51.709701	     24709.635
        750.00	     606.44951	     24.601517	     24710.845
        751.00	     583.50089	     28.404351	     24712.055
        752.00	     586.06117	     38.079159	     24713.265
        753.00	     502.45396	     32.280843	     24714.474
        754.00	     503.82218	     39.552471	     24715.685
        755.00	     546.53499	     28.560526	     24716.895
        756.00	     610.73109	     32.107239	     24718.105
        757.00	     522.25752	     42.762698	     24719.314
        758.00	     489.20187	     52.574870	     24720.524
        759.00	     542.59894	     46.202372	     24721.735
        760.00	     467.63022	     31.351318	     24722.944
        761.00	     554.32145	     37.237705	     24724.154
        762.00	     481.52480	     47.753567	     24725.365
        763.00	     442.96504	     35.479980	     24726.574
        764.00	     478.25479	     33.390695	     24727.784
        765.00	     444.67514	     41.250152	     24728.994
        766.00	     501.90581	     46.892492	     24730.204
        767.00	     415.63697	     29.415744	     24731.415
        768.00	     429.69546	     41.469340	     24732.625
        769.00	     393.32216	     33.181017	     24733.834
        770.00	     445.97778	     20.368410	     24735.044
        771.00	     469.88444	     38.403782	     24736.254
        772.00	     386.67150	     36.444653	     24737.464
        773.00	     404.41657	     32.385383	     24738.674
        774.00	     392.03563	     34.272714	     24739.884
        775.00	     447.04164	     49.729715	     24741.134
        776.00	     441.20649	     51.627236	     24742.304
        777.00	     421.99462	     36.393331	     24743.514
        778.00	     501.76765	     57.178814	     24744.724
        779.00	     406.40884	     41.464938	     24745.934
        780.00	     456.47910	     39.694131	     24747.144
        781.00	     375.70920	     66.750744	     24748.354
        782.00	     400.89073	     33.128881	     24749.564
        783.00	     347.33790	     46.533371	     24750.774
        784.00	     380.33975	     31.940676	     24751.984
        785.00	     324.14860	     53.496992	     24753.194
        786.00	     435.68575	     60.263931	     24754.404
        787.00	     458.86437	     49.845133	     24755.614
        788.00	     375.16038	     42.637038	     24756.823
        789.00	     386.01246	     26.597511	     24758.034
        790.00	     260.98803	     37.609823	     24759.244
        791.00	     412.55667	     47.565340	     24760.454
        792.00	     332.97185	     38.679046	     24761.664
        793.00	     431.47663	     47.575496	     24762.873
        794.00	     384.80000	     49.261209	     24764.084
        795.00	     405.87789	     46.408677	     24765.294
        796.00	     321.71300	     46.838395	     24766.503
        797.00	     378.43578	     55.951527	     24767.714
        798.00	     387.04827	     53.513285	     24768.924
        799.00	     308.92772	     35.937896	     24770.134
        800.00	     357.10574	     44.943977	     24771.344
