Title=181004_em_PBS_1,786uM_AT488
Comment=
Signature=ISS_Experiment_Ver_1_0
Timestamp=Thu Oct 04 18:28:51 2018
Product=Vinci2
SoftwareVersion=BETA.2.4
BuildNumber=234
RealTimeStart=22272.5795211

AcquisitionType=Photon Counting
AcquisitionFormat=L
AcquisitionSide=Right
Detector Gains=(0.0, 0.0)

Measurable=Intensity
MaxIterations=10

RightEmissionWavelengthBandwidth=8.0
ExcitationWavelengthBandwidth=8.0
Visualization=Y:Intensity,X:EmissionWavelength,PlotType:2D


EmissionWavelength=type:numeric,unit:nm,from:450.0,to:800.0,step:1.0
ExcitationWavelength=type:numeric,unit:nm,fixed:500.0

Space=EmissionWavelength
Columns=EmissionWavelength,Intensity,IntensityStdError,RealTime
[Data]
        450.00	     72.096003	     2.0551177	     22279.126
        451.00	     75.828930	     1.7526401	     22280.595
        452.00	     73.867436	     3.0512003	     22281.805
        453.00	     79.840498	     1.8844505	     22283.015
        454.00	     80.827871	     1.1128583	     22284.225
        455.00	     83.141382	     1.6650199	     22285.435
        456.00	     91.198871	     2.9500844	     22286.644
        457.00	     87.955121	     2.7914561	     22287.855
        458.00	     94.910082	     2.5932200	     22289.065
        459.00	     97.862861	     1.2197796	     22290.275
        460.00	     100.26927	     1.2826975	     22291.485
        461.00	     110.16601	     1.6167918	     22292.694
        462.00	     116.35881	     3.3246263	     22293.905
        463.00	     127.55484	     2.0515573	     22295.115
        464.00	     138.30321	     2.2814458	     22296.325
        465.00	     144.64414	     4.5336851	     22297.535
        466.00	     174.51228	     2.9315313	     22298.745
        467.00	     184.47953	     3.9102559	     22299.955
        468.00	     201.11047	     4.4571031	     22301.165
        469.00	     227.79284	     3.0590939	     22302.375
        470.00	     244.33288	     3.6869429	     22303.585
        471.00	     279.08330	     3.1474273	     22304.794
        472.00	     312.98122	     3.6100822	     22306.005
        473.00	     352.93424	     6.0850578	     22307.214
        474.00	     400.42807	     4.5957893	     22308.425
        475.00	     454.95323	     4.0917028	     22309.635
        476.00	     506.76508	     5.6000995	     22310.845
        477.00	     589.88627	     6.2118070	     22312.055
        478.00	     681.43174	     6.5459061	     22313.265
        479.00	     784.88202	     9.8715276	     22314.475
        480.00	     918.49486	     8.8228233	     22315.685
        481.00	     1073.1047	     5.8253416	     22316.894
        482.00	     1264.9814	     9.4513610	     22318.105
        483.00	     1513.2994	     11.693913	     22319.314
        484.00	     1832.8566	     6.2191349	     22320.524
        485.00	     2212.7612	     14.282231	     22321.735
        486.00	     2711.0957	     18.436709	     22322.945
        487.00	     3316.3005	     11.264678	     22324.154
        488.00	     4070.2713	     8.9304671	     22325.364
        489.00	     5070.4503	     20.562562	     22326.574
        490.00	     6291.6524	     21.169753	     22327.785
        491.00	     7783.2317	     17.310017	     22328.994
        492.00	     9644.7938	     26.914539	     22330.204
        493.00	     11931.316	     41.817304	     22331.414
        494.00	     14692.795	     21.569536	     22332.624
        495.00	     18029.968	     33.390357	     22333.835
        496.00	     21844.823	     31.727048	     22335.044
        497.00	     26517.459	     42.159588	     22336.254
        498.00	     31776.373	     40.934761	     22337.464
        499.00	     37980.836	     41.998198	     22338.674
        500.00	     45177.541	     55.390701	     22339.884
        501.00	     53034.720	     35.106837	     22341.094
        502.00	     61235.664	     45.073656	     22342.304
        503.00	     70181.842	     64.523937	     22343.514
        504.00	     79446.166	     62.469611	     22344.724
        505.00	     89120.322	     64.961737	     22345.934
        506.00	     98377.139	     65.387204	     22347.145
        507.00	     107484.40	     69.616351	     22348.354
        508.00	     116029.18	     84.633948	     22349.564
        509.00	     123350.84	     44.161180	     22350.774
        510.00	     130255.76	     70.078975	     22351.984
        511.00	     136005.75	     53.976418	     22353.194
        512.00	     140748.13	     63.404889	     22354.404
        513.00	     144374.56	     53.061405	     22355.614
        514.00	     147187.55	     51.567801	     22356.824
        515.00	     149313.40	     81.097766	     22358.034
        516.00	     151063.52	     50.155311	     22359.244
        517.00	     152144.39	     65.246742	     22360.454
        518.00	     152807.94	     45.578627	     22361.664
        519.00	     153333.64	     47.333309	     22362.874
        520.00	     153442.84	     32.290445	     22364.084
        521.00	     153494.50	     43.157733	     22365.294
        522.00	     153468.71	     46.778465	     22366.504
        523.00	     153521.39	     37.126205	     22367.713
        524.00	     153223.42	     52.998182	     22368.924
        525.00	     152496.99	     48.543444	     22370.134
        526.00	     151983.11	     27.134000	     22371.344
        527.00	     151502.15	     50.074039	     22372.553
        528.00	     150935.10	     35.415103	     22373.764
        529.00	     150008.62	     25.153964	     22374.974
        530.00	     149248.79	     52.091754	     22376.184
        531.00	     147893.21	     35.987302	     22377.394
        532.00	     146755.85	     34.535081	     22378.604
        533.00	     145395.34	     49.047045	     22379.813
        534.00	     143970.65	     58.815354	     22381.024
        535.00	     142324.38	     47.660238	     22382.234
        536.00	     140669.75	     61.695922	     22383.443
        537.00	     138873.52	     68.066408	     22384.653
        538.00	     136886.93	     58.402040	     22385.863
        539.00	     134718.27	     86.268318	     22387.073
        540.00	     132580.73	     60.180936	     22388.283
        541.00	     130370.54	     70.638683	     22389.493
        542.00	     127850.09	     59.586400	     22390.703
        543.00	     125530.60	     57.897026	     22391.913
        544.00	     123191.44	     79.110777	     22393.123
        545.00	     120813.49	     58.808771	     22394.333
        546.00	     118625.11	     61.166899	     22395.543
        547.00	     116228.06	     89.884760	     22396.753
        548.00	     114057.07	     82.223715	     22397.962
        549.00	     111907.02	     78.372062	     22399.173
        550.00	     110008.34	     104.61388	     22400.383
        551.00	     107885.01	     65.967927	     22401.593
        552.00	     105982.83	     89.050198	     22402.803
        553.00	     104215.37	     44.908312	     22404.013
        554.00	     102263.28	     59.338647	     22405.223
        555.00	     100598.92	     58.909978	     22406.433
        556.00	     98799.241	     68.333219	     22407.643
        557.00	     97337.797	     87.349099	     22408.853
        558.00	     95448.596	     74.800488	     22410.063
        559.00	     93648.299	     45.354390	     22411.273
        560.00	     92296.476	     123.19137	     22412.483
        561.00	     90504.503	     75.491502	     22413.693
        562.00	     88596.605	     102.78134	     22414.903
        563.00	     86904.285	     68.562061	     22416.113
        564.00	     85401.854	     62.042387	     22417.323
        565.00	     83497.975	     74.778482	     22418.533
        566.00	     81806.256	     60.125318	     22419.742
        567.00	     79630.801	     81.452319	     22420.953
        568.00	     77965.287	     59.311953	     22422.163
        569.00	     76016.430	     86.185767	     22423.373
        570.00	     74041.357	     87.801782	     22424.583
        571.00	     72198.993	     54.553247	     22425.793
        572.00	     70227.850	     98.793827	     22427.003
        573.00	     68150.291	     87.449592	     22428.212
        574.00	     66133.855	     82.495112	     22429.423
        575.00	     64189.060	     58.677211	     22430.633
        576.00	     62121.738	     54.891748	     22431.842
        577.00	     60123.288	     67.463217	     22433.053
        578.00	     58243.577	     72.537952	     22434.263
        579.00	     56284.778	     32.403004	     22435.473
        580.00	     54474.208	     76.125871	     22436.682
        581.00	     52515.739	     52.141130	     22437.892
        582.00	     50614.685	     73.258311	     22439.103
        583.00	     48828.785	     86.061438	     22440.313
        584.00	     47186.517	     100.33819	     22441.523
        585.00	     45186.307	     80.707230	     22442.733
        586.00	     43709.374	     78.503809	     22443.942
        587.00	     42071.394	     64.120731	     22445.153
        588.00	     40241.845	     40.833253	     22446.363
        589.00	     39069.446	     73.054326	     22447.572
        590.00	     37461.206	     60.148392	     22448.783
        591.00	     35949.530	     62.037309	     22449.992
        592.00	     34691.048	     77.059079	     22451.202
        593.00	     33393.877	     54.707185	     22452.413
        594.00	     32186.343	     65.554389	     22453.623
        595.00	     30891.269	     66.919614	     22454.832
        596.00	     29854.877	     52.830627	     22456.042
        597.00	     28761.082	     65.967058	     22457.252
        598.00	     27759.882	     64.429079	     22458.462
        599.00	     26720.762	     80.026889	     22462.752
        600.00	     25798.042	     33.402837	     22463.962
        601.00	     24833.062	     49.341257	     22465.172
        602.00	     23933.089	     56.315871	     22466.382
        603.00	     23231.970	     64.376846	     22467.592
        604.00	     22315.905	     43.451711	     22468.802
        605.00	     21627.349	     50.677554	     22470.012
        606.00	     20862.610	     65.148124	     22471.222
        607.00	     20162.484	     37.417196	     22472.432
        608.00	     19540.952	     62.536739	     22473.642
        609.00	     18906.521	     33.996357	     22474.851
        610.00	     18278.314	     57.590288	     22476.062
        611.00	     17654.054	     58.220186	     22477.272
        612.00	     17101.403	     61.602364	     22478.482
        613.00	     16583.746	     58.874675	     22479.692
        614.00	     16005.921	     51.895448	     22480.902
        615.00	     15442.014	     53.174496	     22482.112
        616.00	     15037.427	     28.189758	     22483.322
        617.00	     14550.172	     32.286980	     22484.532
        618.00	     14097.544	     48.651485	     22485.742
        619.00	     13563.024	     45.347873	     22486.952
        620.00	     13237.831	     38.761829	     22488.161
        621.00	     12787.499	     40.610734	     22489.372
        622.00	     12389.056	     33.493999	     22490.582
        623.00	     11871.523	     50.491059	     22491.792
        624.00	     11510.299	     24.612676	     22493.002
        625.00	     11149.928	     44.192875	     22494.211
        626.00	     10753.310	     41.787859	     22495.422
        627.00	     10428.659	     65.924366	     22496.632
        628.00	     10012.207	     43.446697	     22497.851
        629.00	     9758.2531	     60.209311	     22499.051
        630.00	     9388.7246	     38.465107	     22500.262
        631.00	     9071.3254	     32.198961	     22501.471
        632.00	     8772.3860	     18.429903	     22502.681
        633.00	     8441.6266	     37.932824	     22503.891
        634.00	     8211.6696	     29.807197	     22505.102
        635.00	     7857.7442	     35.565110	     22506.312
        636.00	     7630.8949	     28.554170	     22507.521
        637.00	     7328.7483	     42.765989	     22508.731
        638.00	     7065.7922	     29.381044	     22509.941
        639.00	     6829.5143	     31.227706	     22511.151
        640.00	     6534.8542	     22.351759	     22512.362
        641.00	     6314.9017	     26.967188	     22513.571
        642.00	     6062.5643	     28.053366	     22514.781
        643.00	     5920.5953	     39.866230	     22515.991
        644.00	     5690.5964	     20.758094	     22517.201
        645.00	     5471.1451	     38.428623	     22518.411
        646.00	     5276.4458	     35.765375	     22519.621
        647.00	     5091.1944	     26.493255	     22520.831
        648.00	     4916.1642	     39.531396	     22522.041
        649.00	     4643.5032	     31.587882	     22523.251
        650.00	     4578.2329	     32.400595	     22524.462
        651.00	     4429.2650	     16.414880	     22525.671
        652.00	     4249.5040	     37.617049	     22526.881
        653.00	     4129.3914	     21.071264	     22528.091
        654.00	     3966.9643	     31.212217	     22529.300
        655.00	     3797.5631	     24.063858	     22530.511
        656.00	     3776.1636	     31.349760	     22531.721
        657.00	     3621.2536	     31.592535	     22532.931
        658.00	     3455.0461	     27.092176	     22534.141
        659.00	     3352.6794	     35.489860	     22535.350
        660.00	     3279.1577	     34.590578	     22536.561
        661.00	     3150.5722	     30.627388	     22537.771
        662.00	     3026.1139	     20.216385	     22538.981
        663.00	     2937.9711	     25.656790	     22540.191
        664.00	     2886.4419	     24.272612	     22541.401
        665.00	     2815.1739	     28.763729	     22542.611
        666.00	     2712.7627	     31.245063	     22543.821
        667.00	     2609.1550	     23.138608	     22545.031
        668.00	     2540.9246	     30.141185	     22546.241
        669.00	     2500.4013	     20.748987	     22547.450
        670.00	     2438.6713	     27.293573	     22548.660
        671.00	     2317.3108	     31.691336	     22549.871
        672.00	     2264.0970	     25.814956	     22551.081
        673.00	     2206.8853	     15.451773	     22552.290
        674.00	     2189.8447	     31.159579	     22553.500
        675.00	     2073.4124	     29.633658	     22554.711
        676.00	     2038.4042	     19.462560	     22555.921
        677.00	     2007.5585	     24.748113	     22557.131
        678.00	     1923.5395	     20.193130	     22558.341
        679.00	     1919.4527	     23.925800	     22559.551
        680.00	     1852.3499	     27.281837	     22560.771
        681.00	     1814.1421	     23.255110	     22561.971
        682.00	     1747.1883	     27.280036	     22563.181
        683.00	     1684.9995	     15.437916	     22564.390
        684.00	     1651.1375	     24.000536	     22565.600
        685.00	     1594.0045	     26.337515	     22566.810
        686.00	     1561.6263	     24.368480	     22568.020
        687.00	     1512.4316	     20.237449	     22569.230
        688.00	     1529.9588	     23.230002	     22570.440
        689.00	     1465.1498	     19.274922	     22571.650
        690.00	     1430.2535	     18.948774	     22572.861
        691.00	     1379.2890	     23.436135	     22574.070
        692.00	     1315.2302	     24.812569	     22575.280
        693.00	     1332.2148	     19.616974	     22576.490
        694.00	     1263.2071	     25.127994	     22577.700
        695.00	     1251.4581	     20.440081	     22578.910
        696.00	     1249.0326	     24.550336	     22580.120
        697.00	     1181.9436	     30.447186	     22581.330
        698.00	     1163.7750	     35.659557	     22582.540
        699.00	     1139.5191	     22.833914	     22583.750
        700.00	     1146.7047	     26.398348	     22584.960
        701.00	     1100.3607	     27.553603	     22586.170
        702.00	     1094.9056	     17.944591	     22587.380
        703.00	     1034.0336	     15.011422	     22588.590
        704.00	     998.58566	     26.550958	     22589.800
        705.00	     978.44464	     25.053507	     22591.010
        706.00	     989.83477	     24.843946	     22592.220
        707.00	     941.71186	     24.398574	     22593.430
        708.00	     943.96378	     24.695176	     22594.640
        709.00	     894.47153	     26.873103	     22595.850
        710.00	     888.53227	     28.520876	     22597.060
        711.00	     809.47460	     24.281361	     22598.270
        712.00	     815.45210	     16.134877	     22599.480
        713.00	     789.65285	     21.738019	     22600.690
        714.00	     790.13219	     16.997060	     22601.899
        715.00	     743.16493	     35.406488	     22603.110
        716.00	     711.57376	     23.351832	     22604.320
        717.00	     750.16112	     26.498493	     22605.530
        718.00	     679.15312	     26.920204	     22606.740
        719.00	     699.57979	     19.367130	     22607.949
        720.00	     704.63855	     26.653766	     22609.159
        721.00	     648.83893	     33.827081	     22610.369
        722.00	     660.37245	     37.016739	     22611.580
        723.00	     690.41794	     30.612402	     22612.790
        724.00	     613.16847	     32.172675	     22613.999
        725.00	     633.18879	     26.307194	     22615.210
        726.00	     634.47585	     24.315707	     22616.420
        727.00	     579.11803	     28.913119	     22617.630
        728.00	     579.09886	     27.268409	     22618.840
        729.00	     584.28529	     31.281072	     22620.049
        730.00	     536.66990	     23.870503	     22621.260
        731.00	     584.46911	     20.126611	     22622.470
        732.00	     542.66917	     22.640958	     22623.680
        733.00	     556.97848	     23.432298	     22624.889
        734.00	     504.65673	     30.560535	     22626.099
        735.00	     582.58624	     25.793408	     22627.310
        736.00	     504.40092	     38.920251	     22628.519
        737.00	     477.40857	     28.021621	     22629.729
        738.00	     503.80438	     23.045755	     22630.939
        739.00	     458.75166	     23.876426	     22632.149
        740.00	     491.54301	     29.731760	     22633.360
        741.00	     434.44538	     31.734242	     22634.569
        742.00	     456.80131	     36.195635	     22635.779
        743.00	     461.24765	     29.713674	     22636.989
        744.00	     453.53885	     34.191594	     22638.199
        745.00	     464.08426	     28.078620	     22639.409
        746.00	     439.55119	     27.281113	     22640.619
        747.00	     479.14471	     37.032258	     22641.829
        748.00	     433.62719	     15.829494	     22646.119
        749.00	     359.91384	     24.041487	     22647.329
        750.00	     391.49907	     18.752912	     22648.539
        751.00	     429.04477	     52.778857	     22649.749
        752.00	     373.31994	     37.113016	     22650.959
        753.00	     413.96825	     30.564734	     22652.169
        754.00	     393.20149	     36.823420	     22653.379
        755.00	     392.27536	     18.949030	     22654.589
        756.00	     413.96386	     51.347821	     22655.809
        757.00	     369.54747	     22.112263	     22657.009
        758.00	     386.50260	     34.383164	     22658.219
        759.00	     393.95701	     37.031764	     22659.429
        760.00	     390.63541	     32.136625	     22660.639
        761.00	     393.07473	     51.048094	     22661.849
        762.00	     382.43847	     24.508082	     22663.059
        763.00	     436.51978	     24.099335	     22664.268
        764.00	     424.25828	     34.613146	     22665.479
        765.00	     333.05628	     32.884121	     22666.689
        766.00	     300.77890	     45.841825	     22667.899
        767.00	     381.20551	     61.518908	     22669.109
        768.00	     338.90597	     27.596537	     22670.318
        769.00	     351.85369	     40.880417	     22671.529
        770.00	     400.80742	     39.045753	     22672.739
        771.00	     392.10603	     33.946053	     22673.959
        772.00	     405.48605	     38.091716	     22675.159
        773.00	     351.23842	     36.108623	     22676.368
        774.00	     417.90600	     31.966121	     22677.579
        775.00	     382.60321	     40.087134	     22678.789
        776.00	     332.09091	     36.075283	     22679.999
        777.00	     239.76967	     40.784983	     22681.209
        778.00	     328.29151	     38.221563	     22682.419
        779.00	     353.24692	     43.324404	     22683.629
        780.00	     321.51392	     56.738088	     22684.839
        781.00	     271.42490	     46.351569	     22686.048
        782.00	     295.62086	     43.726424	     22687.259
        783.00	     284.58358	     62.959515	     22688.468
        784.00	     350.11895	     59.944654	     22689.678
        785.00	     349.42624	     46.097191	     22690.888
        786.00	     277.45908	     40.382781	     22692.098
        787.00	     200.65851	     69.410176	     22693.308
        788.00	     324.73149	     55.814611	     22694.518
        789.00	     327.45568	     58.014139	     22695.728
        790.00	     213.60627	     46.334516	     22696.938
        791.00	     333.33951	     50.306505	     22698.148
        792.00	     233.31757	     37.026501	     22699.358
        793.00	     326.99708	     42.118764	     22700.568
        794.00	     256.00000	     33.836207	     22701.778
        795.00	     285.94137	     57.763927	     22702.988
        796.00	     320.93025	     37.900659	     22704.198
        797.00	     316.63478	     56.655167	     22705.408
        798.00	     235.46663	     44.286049	     22706.618
        799.00	     279.54016	     41.036410	     22707.828
        800.00	     254.06733	     30.762606	     22709.038
