Title=181004_em_PBS_2,294uM_ST488
Comment=
Signature=ISS_Experiment_Ver_1_0
Timestamp=Thu Oct 04 17:52:10 2018
Product=Vinci2
SoftwareVersion=BETA.2.4
BuildNumber=234
RealTimeStart=20071.266493

AcquisitionType=Photon Counting
AcquisitionFormat=L
AcquisitionSide=Right
Detector Gains=(0.0, 0.0)

Measurable=Intensity
MaxIterations=10

RightEmissionWavelengthBandwidth=8.0
ExcitationWavelengthBandwidth=8.0
Visualization=Y:Intensity,X:EmissionWavelength,PlotType:2D


EmissionWavelength=type:numeric,unit:nm,from:450.0,to:800.0,step:1.0
ExcitationWavelength=type:numeric,unit:nm,fixed:501.0

Space=EmissionWavelength
Columns=EmissionWavelength,Intensity,IntensityStdError,RealTime
[Data]
        450.00	     68.873127	     1.6726577	     20079.442
        451.00	     71.453695	     1.5868679	     20080.882
        452.00	     69.081154	     2.4833689	     20082.092
        453.00	     74.784703	     1.4964516	     20083.301
        454.00	     76.000400	     2.1339998	     20084.512
        455.00	     77.513908	     1.9468993	     20085.722
        456.00	     80.059879	     1.9757265	     20086.932
        457.00	     83.971457	     3.1304043	     20088.141
        458.00	     86.159694	     1.5746700	     20089.351
        459.00	     89.734100	     3.5712659	     20090.562
        460.00	     91.054906	     2.9426924	     20091.772
        461.00	     101.30146	     2.4046871	     20092.982
        462.00	     100.30097	     2.5599819	     20094.192
        463.00	     103.74964	     1.7880536	     20095.401
        464.00	     113.95903	     2.6794354	     20096.612
        465.00	     121.76243	     3.3961976	     20097.822
        466.00	     135.74398	     2.9085835	     20099.032
        467.00	     143.48102	     3.2415005	     20100.242
        468.00	     162.33717	     4.2317684	     20101.452
        469.00	     168.95007	     3.4449836	     20102.662
        470.00	     189.45867	     2.3138670	     20103.871
        471.00	     220.08549	     4.1501025	     20105.082
        472.00	     239.11357	     3.0637368	     20106.291
        473.00	     267.32007	     3.8518621	     20107.501
        474.00	     307.17809	     3.8886287	     20108.711
        475.00	     341.95680	     5.8070265	     20109.921
        476.00	     388.42047	     5.0023671	     20111.131
        477.00	     435.85103	     3.8087311	     20112.341
        478.00	     509.59726	     5.1435794	     20113.551
        479.00	     598.42256	     6.9221927	     20114.761
        480.00	     681.38374	     6.0175481	     20115.971
        481.00	     816.12640	     2.9786958	     20117.181
        482.00	     940.70557	     5.1320133	     20118.391
        483.00	     1115.4388	     5.5108587	     20119.601
        484.00	     1325.6569	     8.4692877	     20120.811
        485.00	     1599.5780	     9.1749133	     20122.021
        486.00	     1940.1902	     11.484532	     20123.231
        487.00	     2353.5901	     11.419556	     20124.441
        488.00	     2863.8383	     15.935043	     20125.651
        489.00	     3525.6348	     19.520995	     20126.861
        490.00	     4315.1198	     19.321723	     20128.071
        491.00	     5353.6135	     17.613850	     20129.281
        492.00	     6553.2733	     25.902611	     20130.491
        493.00	     8063.6833	     17.570584	     20131.701
        494.00	     9933.7001	     25.337489	     20132.911
        495.00	     12118.220	     23.191554	     20134.121
        496.00	     14697.789	     18.109606	     20135.331
        497.00	     17900.072	     20.331935	     20136.541
        498.00	     21531.439	     36.102452	     20137.752
        499.00	     26018.126	     35.712909	     20138.961
        500.00	     31156.477	     34.958224	     20140.171
        501.00	     37057.502	     47.843642	     20141.381
        502.00	     43234.002	     60.487812	     20142.591
        503.00	     50306.014	     50.760026	     20143.801
        504.00	     57798.396	     81.737511	     20145.011
        505.00	     65930.355	     113.83922	     20146.221
        506.00	     74404.878	     59.443823	     20147.431
        507.00	     83168.110	     63.508725	     20148.640
        508.00	     91750.941	     82.495514	     20149.850
        509.00	     100381.21	     33.469612	     20151.061
        510.00	     108716.91	     74.517074	     20152.271
        511.00	     116269.14	     60.642375	     20153.481
        512.00	     123430.76	     43.757174	     20154.691
        513.00	     129558.87	     87.686095	     20155.901
        514.00	     134626.32	     84.156056	     20157.111
        515.00	     138973.75	     54.483517	     20158.321
        516.00	     142804.27	     66.195978	     20159.531
        517.00	     145764.02	     75.565784	     20160.741
        518.00	     148091.42	     52.371423	     20161.950
        519.00	     150040.59	     31.906531	     20163.161
        520.00	     151175.22	     44.973796	     20164.371
        521.00	     152308.14	     22.232736	     20165.581
        522.00	     153169.76	     45.257887	     20166.790
        523.00	     153979.46	     47.904302	     20168.001
        524.00	     154246.69	     33.861524	     20169.211
        525.00	     154303.98	     53.659462	     20170.420
        526.00	     154289.96	     59.388113	     20171.630
        527.00	     154307.38	     49.655590	     20172.840
        528.00	     154275.64	     46.541787	     20174.050
        529.00	     153765.44	     25.946934	     20175.261
        530.00	     153309.76	     38.035202	     20176.470
        531.00	     152550.53	     47.266645	     20177.680
        532.00	     151867.84	     29.159161	     20178.890
        533.00	     151030.35	     42.662033	     20180.100
        534.00	     149897.99	     40.104928	     20181.310
        535.00	     148487.98	     68.662957	     20182.520
        536.00	     146963.37	     76.983460	     20183.730
        537.00	     145393.57	     69.389111	     20184.940
        538.00	     143494.66	     54.876277	     20186.150
        539.00	     141392.46	     81.449348	     20187.360
        540.00	     139158.24	     77.009760	     20188.570
        541.00	     137052.71	     59.610985	     20189.780
        542.00	     134300.80	     53.287225	     20190.990
        543.00	     131714.11	     77.700881	     20192.199
        544.00	     129012.76	     65.439422	     20193.410
        545.00	     125987.22	     55.739839	     20194.620
        546.00	     123238.65	     49.287323	     20195.830
        547.00	     120455.25	     73.507542	     20197.040
        548.00	     117434.72	     70.591076	     20198.250
        549.00	     114631.54	     66.726349	     20199.460
        550.00	     112193.18	     78.713506	     20200.670
        551.00	     109317.81	     68.003663	     20201.880
        552.00	     106678.63	     34.349153	     20203.090
        553.00	     104400.01	     58.872999	     20204.299
        554.00	     101836.02	     48.267754	     20205.510
        555.00	     99651.036	     86.259882	     20206.720
        556.00	     97426.021	     83.822369	     20207.930
        557.00	     95338.945	     43.415921	     20209.139
        558.00	     93390.595	     82.873473	     20210.349
        559.00	     91625.034	     96.013085	     20211.560
        560.00	     89550.730	     63.567730	     20212.770
        561.00	     87884.233	     77.627901	     20213.980
        562.00	     86135.779	     89.089050	     20215.190
        563.00	     84413.028	     87.853581	     20216.400
        564.00	     82665.981	     51.301867	     20217.610
        565.00	     80960.410	     80.552292	     20218.820
        566.00	     79557.501	     80.478482	     20220.030
        567.00	     77683.562	     37.873792	     20221.240
        568.00	     75902.603	     95.299234	     20222.449
        569.00	     74386.195	     91.168673	     20223.660
        570.00	     72468.740	     101.96876	     20224.870
        571.00	     70727.075	     72.486965	     20226.079
        572.00	     68962.844	     49.016699	     20227.289
        573.00	     67087.298	     73.718933	     20228.499
        574.00	     65416.034	     66.631876	     20229.710
        575.00	     63485.650	     99.634268	     20230.919
        576.00	     61625.874	     69.758146	     20232.129
        577.00	     59740.877	     81.362015	     20233.349
        578.00	     57761.887	     74.706979	     20234.549
        579.00	     55728.686	     107.71204	     20235.760
        580.00	     54201.316	     79.416184	     20236.969
        581.00	     52283.772	     65.372803	     20238.179
        582.00	     50295.955	     77.148175	     20239.389
        583.00	     48615.443	     60.528448	     20240.599
        584.00	     46719.504	     72.765149	     20241.809
        585.00	     45153.342	     44.696547	     20243.019
        586.00	     43363.688	     72.023813	     20244.229
        587.00	     41857.796	     49.102212	     20245.439
        588.00	     40050.468	     43.853901	     20246.650
        589.00	     38556.137	     79.353956	     20247.859
        590.00	     36934.839	     50.967754	     20249.069
        591.00	     35547.975	     80.580626	     20250.279
        592.00	     34168.405	     56.984700	     20251.489
        593.00	     32631.906	     88.485347	     20252.699
        594.00	     31444.717	     68.270002	     20253.909
        595.00	     30204.450	     62.736615	     20255.119
        596.00	     28948.679	     72.673707	     20256.329
        597.00	     27792.488	     52.347958	     20257.539
        598.00	     26815.267	     60.856267	     20261.829
        599.00	     25609.005	     61.246604	     20263.039
        600.00	     24619.357	     77.610002	     20264.249
        601.00	     23728.531	     54.081136	     20265.459
        602.00	     22826.040	     56.318595	     20266.669
        603.00	     22046.002	     50.748116	     20267.878
        604.00	     21160.893	     51.411550	     20269.088
        605.00	     20330.951	     44.968623	     20270.299
        606.00	     19630.306	     67.058104	     20271.509
        607.00	     18957.029	     73.315660	     20272.719
        608.00	     18197.513	     53.385566	     20273.928
        609.00	     17677.576	     44.575463	     20275.139
        610.00	     16921.532	     31.148071	     20276.349
        611.00	     16327.856	     52.638290	     20277.559
        612.00	     15795.009	     41.104144	     20278.769
        613.00	     15247.020	     54.228510	     20279.979
        614.00	     14768.153	     52.448629	     20281.189
        615.00	     14250.917	     41.432164	     20282.399
        616.00	     13733.844	     41.443199	     20283.609
        617.00	     13342.053	     45.618205	     20284.819
        618.00	     12910.372	     38.244470	     20286.028
        619.00	     12457.153	     52.564471	     20287.238
        620.00	     12102.066	     41.921184	     20288.449
        621.00	     11655.935	     37.524432	     20289.658
        622.00	     11312.836	     46.483869	     20290.868
        623.00	     11020.742	     46.779399	     20292.079
        624.00	     10566.325	     40.014504	     20293.289
        625.00	     10323.447	     26.435306	     20294.498
        626.00	     9935.5116	     56.387519	     20295.709
        627.00	     9671.8609	     37.574355	     20296.918
        628.00	     9355.8662	     36.365269	     20298.128
        629.00	     8966.0911	     44.703453	     20299.338
        630.00	     8725.6753	     48.349469	     20300.548
        631.00	     8401.7313	     35.679485	     20301.758
        632.00	     8178.2007	     40.013313	     20302.968
        633.00	     7920.2248	     31.667026	     20304.178
        634.00	     7590.0353	     21.750912	     20305.388
        635.00	     7352.8517	     43.742314	     20306.598
        636.00	     7099.7251	     48.428098	     20307.808
        637.00	     6786.8039	     44.750631	     20309.018
        638.00	     6635.7379	     25.339274	     20310.228
        639.00	     6327.5005	     57.021898	     20311.438
        640.00	     6101.8551	     31.840528	     20312.648
        641.00	     5900.8967	     32.729284	     20313.858
        642.00	     5677.0736	     28.050628	     20315.068
        643.00	     5502.4006	     39.282852	     20316.277
        644.00	     5332.1650	     33.247220	     20317.488
        645.00	     5150.7195	     29.854755	     20318.698
        646.00	     4918.4411	     18.015125	     20319.908
        647.00	     4749.2326	     36.627799	     20321.118
        648.00	     4597.9053	     26.638580	     20322.327
        649.00	     4431.4370	     22.451948	     20323.538
        650.00	     4266.6816	     42.650122	     20324.748
        651.00	     4162.2496	     38.486988	     20325.958
        652.00	     4009.4224	     19.241604	     20327.168
        653.00	     3867.5761	     35.832702	     20328.377
        654.00	     3728.8283	     12.253668	     20329.587
        655.00	     3574.4996	     27.644397	     20330.798
        656.00	     3436.7715	     24.267513	     20332.007
        657.00	     3316.9089	     35.000284	     20333.218
        658.00	     3225.6973	     17.546273	     20334.428
        659.00	     3123.4949	     6.2246187	     20335.637
        660.00	     3063.5203	     23.781181	     20336.848
        661.00	     2931.4631	     20.242743	     20338.058
        662.00	     2830.8498	     27.709261	     20339.267
        663.00	     2727.2118	     21.169070	     20340.477
        664.00	     2654.8940	     25.053916	     20341.688
        665.00	     2473.4468	     24.336138	     20342.898
        666.00	     2512.2371	     31.098301	     20344.108
        667.00	     2393.9244	     25.779461	     20345.318
        668.00	     2361.7128	     19.510109	     20346.527
        669.00	     2291.8323	     19.746784	     20347.738
        670.00	     2208.5644	     15.368232	     20348.947
        671.00	     2139.4641	     19.464295	     20350.157
        672.00	     2057.4639	     21.504144	     20351.368
        673.00	     2016.3316	     20.071994	     20352.577
        674.00	     1969.5384	     27.068810	     20353.787
        675.00	     1937.6029	     27.972345	     20354.997
        676.00	     1856.2839	     32.817258	     20356.208
        677.00	     1866.0370	     26.445505	     20357.417
        678.00	     1760.9235	     27.746811	     20358.627
        679.00	     1773.6803	     32.077400	     20359.847
        680.00	     1677.0626	     21.354788	     20361.047
        681.00	     1642.2112	     28.366344	     20362.257
        682.00	     1569.9719	     21.705317	     20363.467
        683.00	     1546.1208	     20.561992	     20364.677
        684.00	     1485.8159	     30.763480	     20365.887
        685.00	     1458.5939	     21.899564	     20367.097
        686.00	     1442.9084	     16.231255	     20368.307
        687.00	     1420.6075	     17.784590	     20369.517
        688.00	     1366.4074	     17.510564	     20370.727
        689.00	     1352.1955	     14.391129	     20371.937
        690.00	     1240.0767	     19.997188	     20373.147
        691.00	     1242.8089	     17.232990	     20374.367
        692.00	     1265.1688	     27.750382	     20375.567
        693.00	     1198.1065	     14.639395	     20376.777
        694.00	     1234.6178	     30.849502	     20377.987
        695.00	     1164.3652	     14.529793	     20379.197
        696.00	     1137.9370	     23.854149	     20380.407
        697.00	     1070.3961	     29.233384	     20381.617
        698.00	     1084.3842	     20.957464	     20382.826
        699.00	     1086.1486	     21.872529	     20384.037
        700.00	     1017.7938	     20.334975	     20385.247
        701.00	     1060.0052	     26.404963	     20386.457
        702.00	     995.68446	     34.894346	     20387.667
        703.00	     991.25296	     19.978575	     20388.876
        704.00	     942.24074	     24.225693	     20390.086
        705.00	     888.76254	     22.698992	     20391.297
        706.00	     896.23025	     31.411244	     20392.507
        707.00	     872.03483	     20.448463	     20393.717
        708.00	     852.80556	     28.668998	     20394.926
        709.00	     796.43590	     31.473249	     20396.137
        710.00	     801.61368	     21.622607	     20397.346
        711.00	     849.32215	     22.927611	     20398.557
        712.00	     744.70643	     21.311858	     20399.767
        713.00	     785.25612	     24.625763	     20400.977
        714.00	     767.76152	     30.091531	     20402.187
        715.00	     681.20933	     26.347140	     20403.397
        716.00	     723.84756	     20.842641	     20404.607
        717.00	     750.16112	     26.087001	     20405.817
        718.00	     731.42004	     23.616483	     20407.026
        719.00	     672.22731	     32.219582	     20408.237
        720.00	     662.21010	     28.478494	     20409.447
        721.00	     680.38432	     31.252758	     20410.657
        722.00	     616.54988	     8.7219136	     20411.866
        723.00	     669.90032	     16.723458	     20413.076
        724.00	     590.57439	     20.799670	     20414.286
        725.00	     633.18879	     35.878229	     20415.496
        726.00	     652.35849	     36.180123	     20416.707
        727.00	     564.58558	     20.228311	     20417.916
        728.00	     562.48991	     21.521336	     20419.126
        729.00	     490.88931	     27.311119	     20420.336
        730.00	     515.79518	     29.676768	     20421.546
        731.00	     582.54525	     39.966135	     20422.756
        732.00	     521.18119	     22.892377	     20423.966
        733.00	     503.42285	     32.959700	     20425.176
        734.00	     560.99799	     22.446896	     20426.386
        735.00	     478.62579	     24.536665	     20427.636
        736.00	     516.81439	     31.217052	     20428.806
        737.00	     506.74887	     34.795943	     20430.016
        738.00	     450.61557	     41.236478	     20431.226
        739.00	     471.68639	     36.358399	     20432.446
        740.00	     458.74432	     24.706087	     20433.646
        741.00	     452.19596	     36.119808	     20434.856
        742.00	     432.02412	     20.982810	     20436.066
        743.00	     463.53331	     33.764668	     20437.275
        744.00	     435.00815	     31.353850	     20438.486
        745.00	     417.15966	     41.004986	     20439.696
        746.00	     426.23146	     32.919624	     20440.906
        747.00	     469.99521	     36.071820	     20445.196
        748.00	     387.82836	     34.105509	     20446.406
        749.00	     414.64047	     29.179778	     20447.616
        750.00	     441.87029	     36.761587	     20448.826
        751.00	     452.26367	     36.320799	     20450.035
        752.00	     424.97105	     31.765683	     20451.246
        753.00	     440.35873	     35.819568	     20452.456
        754.00	     417.31785	     33.660425	     20453.666
        755.00	     414.00953	     34.996090	     20454.876
        756.00	     468.26301	     31.412058	     20456.086
        757.00	     421.71887	     48.098842	     20457.296
        758.00	     389.81548	     38.209536	     20458.506
        759.00	     414.07396	     36.322277	     20459.716
        760.00	     394.03224	     56.013050	     20460.926
        761.00	     364.95698	     45.826770	     20462.136
        762.00	     440.96314	     37.415946	     20463.345
        763.00	     419.52773	     23.026811	     20464.556
        764.00	     421.88481	     49.851171	     20465.766
        765.00	     420.67109	     22.916751	     20466.976
        766.00	     395.56983	     35.154785	     20468.196
        767.00	     397.19155	     40.526080	     20469.395
        768.00	     342.63704	     25.910242	     20470.606
        769.00	     418.45457	     37.406595	     20471.816
        770.00	     366.45250	     39.389775	     20473.025
        771.00	     289.90134	     24.547207	     20474.235
        772.00	     302.33040	     28.526551	     20475.446
        773.00	     368.30795	     51.566928	     20476.655
        774.00	     365.50191	     32.515831	     20477.865
        775.00	     356.42509	     39.219174	     20479.075
        776.00	     437.81781	     39.518492	     20480.285
        777.00	     326.08675	     47.075984	     20481.495
        778.00	     335.89405	     32.499099	     20482.706
        779.00	     423.89631	     29.585485	     20483.915
        780.00	     357.55174	     35.799183	     20485.125
        781.00	     343.56678	     61.961132	     20486.335
        782.00	     400.89073	     40.645548	     20487.545
        783.00	     358.28343	     15.431456	     20488.755
        784.00	     369.28336	     45.053849	     20489.965
        785.00	     368.75621	     48.372540	     20491.175
        786.00	     349.44847	     38.643364	     20492.385
        787.00	     314.99600	     34.699351	     20493.595
        788.00	     363.69926	     51.884575	     20494.805
        789.00	     347.48826	     51.765335	     20496.015
        790.00	     420.22180	     36.639228	     20497.225
        791.00	     396.87010	     45.733804	     20498.435
        792.00	     388.33534	     36.363569	     20499.646
        793.00	     415.52555	     39.633246	     20500.855
        794.00	     368.80000	     44.241760	     20502.065
        795.00	     358.22099	     66.783186	     20503.275
        796.00	     317.79922	     55.717030	     20504.485
        797.00	     317.39775	     29.984490	     20505.695
        798.00	     254.59829	     22.074996	     20506.905
        799.00	     298.17617	     31.516137	     20508.115
        800.00	     314.76119	     60.937737	     20509.325
