Title=200220_em_0,1MNaOH_2,0uM_Flu
Comment=
Signature=ISS_Experiment_Ver_1_0
Timestamp=Thu Feb 20 17:02:44 2020
Product=Vinci2
SoftwareVersion=BETA.2.4
BuildNumber=234
RealTimeStart=7936.1926554

AcquisitionType=Photon Counting
AcquisitionFormat=L
AcquisitionSide=Right
Detector Gains=(0.0, 0.0)

Measurable=Intensity
MaxIterations=10

RightEmissionWavelengthBandwidth=8.0
ExcitationWavelengthBandwidth=8.0
Visualization=Y:Intensity,X:EmissionWavelength,PlotType:2D


EmissionWavelength=type:numeric,unit:nm,from:400.0,to:800.0,step:1.0
ExcitationWavelength=type:numeric,unit:nm,fixed:491.0

Space=EmissionWavelength
Columns=EmissionWavelength,Intensity,IntensityStdError,RealTime
[Data]
        400.00	     1305.9466	     8.1074426	     7939.1543
        401.00	     1309.0463	     6.8338040	     7939.7226
        402.00	     1340.7028	     9.2849081	     7940.0271
        403.00	     1378.2046	     6.3445506	     7940.4405
        404.00	     1381.2784	     7.5732551	     7940.9531
        405.00	     1401.5545	     6.8697642	     7941.2577
        406.00	     1406.2592	     9.6365899	     7941.5621
        407.00	     1440.8445	     9.9061473	     7941.9752
        408.00	     1460.5526	     5.0541136	     7942.4941
        409.00	     1491.0032	     9.0934592	     7942.7988
        410.00	     1505.8751	     6.4022828	     7943.3144
        411.00	     1515.9692	     8.9048552	     7943.6191
        412.00	     1543.3735	     5.7756592	     7944.1345
        413.00	     1578.5880	     7.1912442	     7944.4391
        414.00	     1601.4075	     6.3971712	     7944.8523
        415.00	     1632.0393	     6.7136758	     7945.3680
        416.00	     1624.8100	     7.4765722	     7945.6726
        417.00	     1657.2202	     8.6843390	     7946.0857
        418.00	     1667.3855	     10.398374	     7946.5984
        419.00	     1700.8590	     10.906334	     7946.9029
        420.00	     1715.4361	     6.0267830	     7947.4214
        421.00	     1745.8485	     5.3345924	     7947.7264
        422.00	     1769.1796	     9.4623136	     7948.2416
        423.00	     1769.2546	     9.0539443	     7948.5465
        424.00	     1806.8630	     7.8444036	     7948.9595
        425.00	     1825.3821	     10.900025	     7949.4719
        426.00	     1870.7116	     8.8198303	     7949.7765
        427.00	     1884.5308	     9.0150324	     7950.1899
        428.00	     1891.0613	     7.7989715	     7950.7025
        429.00	     1933.9297	     6.7607185	     7951.0070
        430.00	     1959.3313	     6.6497015	     7951.4201
        431.00	     1963.0412	     14.293902	     7951.9329
        432.00	     1998.3256	     8.4918495	     7952.2373
        433.00	     2020.8993	     9.8371209	     7952.6505
        434.00	     2038.6178	     7.4268487	     7953.1631
        435.00	     2074.0539	     10.154286	     7953.4678
        436.00	     2090.2170	     6.8988794	     7953.8808
        437.00	     2123.7761	     12.706096	     7954.3934
        438.00	     2151.7375	     14.626610	     7954.6982
        439.00	     2214.1310	     12.446233	     7955.1111
        440.00	     2231.6643	     8.7855580	     7955.6237
        441.00	     2271.3568	     10.416463	     7955.9282
        442.00	     2315.7030	     11.255153	     7956.2324
        443.00	     2379.6484	     10.105946	     7956.6458
        444.00	     2455.7253	     16.332795	     7957.1645
        445.00	     2498.3717	     11.608629	     7957.4691
        446.00	     2595.2747	     9.6653170	     7957.8824
        447.00	     2641.6955	     21.867261	     7958.3951
        448.00	     2771.2377	     19.139628	     7958.6993
        449.00	     2904.5511	     12.580214	     7959.0042
        450.00	     3006.8931	     18.613679	     7959.5291
        451.00	     3226.7105	     11.724919	     7959.8339
        452.00	     3335.1429	     27.975773	     7960.3490
        453.00	     3575.6019	     11.952036	     7960.6539
        454.00	     3725.0006	     38.937183	     7961.1695
        455.00	     3997.2955	     45.473341	     7961.4739
        456.00	     4428.1800	     11.661841	     7961.8871
        457.00	     4663.3512	     48.889738	     7962.3998
        458.00	     5054.3770	     48.622354	     7962.7042
        459.00	     5651.1830	     14.576894	     7963.1174
        460.00	     6031.1328	     87.203219	     7963.6302
        461.00	     6632.7627	     90.456490	     7963.9344
        462.00	     7105.6336	     106.17058	     7964.3475
        463.00	     8507.3627	     20.735528	     7964.6522
        464.00	     9155.5045	     161.83721	     7965.1680
        465.00	     10760.802	     19.342532	     7965.4727
        466.00	     11630.464	     203.91709	     7965.9883
        467.00	     13262.592	     249.23287	     7966.2925
        468.00	     15184.146	     294.45152	     7966.5969
        469.00	     16705.384	     352.83612	     7967.0101
        470.00	     21200.800	     30.619520	     7967.3148
        471.00	     24921.185	     47.685148	     7967.8369
        472.00	     27836.486	     701.24975	     7968.3492
        473.00	     32914.449	     787.54303	     7968.6541
        474.00	     41450.833	     33.925558	     7969.0671
        475.00	     46249.132	     1164.7211	     7969.5798
        476.00	     54737.027	     1282.9884	     7969.8843
        477.00	     63828.686	     1323.2608	     7970.1886
        478.00	     76837.203	     42.864947	     7970.6019
        479.00	     83111.438	     1475.8687	     7971.1208
        480.00	     93285.825	     1415.1910	     7971.4253
        481.00	     102714.63	     1232.2130	     7971.7298
        482.00	     112814.82	     40.422009	     7972.1432
        483.00	     116573.11	     791.98035	     7972.6651
        484.00	     123028.57	     31.217813	     7972.9696
        485.00	     125435.32	     435.83578	     7973.4849
        486.00	     128581.58	     345.79145	     7973.7894
        487.00	     130679.24	     257.15152	     7974.2025
        488.00	     134130.99	     28.171124	     7974.5072
        489.00	     135538.77	     160.26938	     7975.0262
        490.00	     137259.94	     43.976995	     7975.3307
        491.00	     138500.72	     66.819193	     7975.8463
        492.00	     139565.87	     92.115128	     7976.1505
        493.00	     141023.50	     24.937250	     7976.5639
        494.00	     141954.47	     64.228725	     7977.0763
        495.00	     142926.02	     44.744276	     7977.3815
        496.00	     143840.28	     33.615316	     7977.8969
        497.00	     145448.50	     49.142110	     7978.4092
        498.00	     148259.73	     47.706407	     7978.7139
        499.00	     152475.46	     45.161407	     7979.1271
        500.00	     157293.32	     55.293308	     7979.6397
        501.00	     162220.99	     39.336899	     7979.9446
        502.00	     166848.17	     43.341026	     7980.4628
        503.00	     171810.59	     53.236689	     7980.7678
        504.00	     175983.07	     36.991117	     7981.2833
        505.00	     180070.07	     43.259819	     7981.5878
        506.00	     183432.86	     54.520073	     7982.0010
        507.00	     186148.31	     53.775219	     7982.5133
        508.00	     187995.81	     43.647330	     7982.8180
        509.00	     188895.60	     31.050496	     7983.2311
        510.00	     189893.51	     43.665864	     7983.5357
        511.00	     189943.69	     42.868951	     7984.0516
        512.00	     189937.54	     31.583569	     7984.3558
        513.00	     189130.14	     63.438761	     7984.7690
        514.00	     188220.78	     62.280572	     7985.2819
        515.00	     187237.68	     50.988254	     7985.5861
        516.00	     186564.41	     56.589170	     7985.9995
        517.00	     185640.86	     31.586106	     7986.5119
        518.00	     184904.84	     31.288157	     7986.8169
        519.00	     184321.37	     35.664457	     7987.3321
        520.00	     183372.72	     40.782636	     7987.6370
        521.00	     182984.44	     38.702142	     7987.9411
        522.00	     182715.69	     45.945202	     7988.3542
        523.00	     182631.24	     43.365482	     7988.8734
        524.00	     182539.81	     56.388464	     7989.1778
        525.00	     182139.72	     41.199258	     7989.4822
        526.00	     182229.70	     45.200948	     7989.8955
        527.00	     182247.34	     58.370187	     7990.4142
        528.00	     182777.63	     52.802123	     7990.7187
        529.00	     182885.24	     40.727198	     7991.0237
        530.00	     183279.68	     34.689225	     7991.5454
        531.00	     183562.70	     44.134495	     7992.0579
        532.00	     184133.87	     73.598037	     7992.3622
        533.00	     184722.58	     45.671326	     7992.7755
        534.00	     185141.27	     35.772564	     7993.2880
        535.00	     185865.67	     25.297071	     7993.5928
        536.00	     186680.55	     47.871426	     7994.1116
        537.00	     187508.09	     56.968189	     7994.4157
        538.00	     188233.18	     34.358396	     7994.8292
        539.00	     189076.37	     58.713051	     7995.3419
        540.00	     189846.21	     48.422425	     7995.6467
        541.00	     191167.61	     56.524761	     7996.1619
        542.00	     191886.29	     42.621672	     7996.4666
        543.00	     192855.39	     58.208321	     7996.8796
        544.00	     193974.90	     47.297399	     7997.3923
        545.00	     194928.17	     52.214339	     7997.6968
        546.00	     196039.06	     23.775118	     7998.0014
        547.00	     197087.74	     59.400627	     7998.5233
        548.00	     198285.24	     60.427064	     7999.0358
        549.00	     199642.80	     45.402712	     7999.3403
        550.00	     200888.05	     34.733201	     7999.7536
        551.00	     201848.94	     27.893281	     8000.2663
        552.00	     203207.11	     35.598640	     8000.7789
        553.00	     204523.98	     54.684542	     8001.0832
        554.00	     205598.88	     46.243654	     8001.4965
        555.00	     207125.76	     53.146408	     8002.0092
        556.00	     208301.57	     65.091512	     8002.3140
        557.00	     209930.35	     42.958994	     8002.8295
        558.00	     211367.82	     49.657544	     8003.3449
        559.00	     213033.96	     50.178110	     8003.6496
        560.00	     214124.17	     43.975319	     8004.0628
        561.00	     215628.03	     42.892324	     8004.5754
        562.00	     217167.21	     61.654453	     8004.8802
        563.00	     218567.90	     68.892293	     8005.3954
        564.00	     220154.79	     64.659057	     8005.6999
        565.00	     221533.77	     54.788004	     8006.1133
        566.00	     223528.54	     37.356116	     8006.6260
        567.00	     224781.48	     63.933654	     8006.9305
        568.00	     226259.54	     41.154022	     8007.3436
        569.00	     228277.41	     79.126921	     8007.8560
        570.00	     229435.06	     75.252776	     8008.1610
        571.00	     231124.20	     86.766244	     8008.6766
        572.00	     232583.38	     53.022953	     8008.9808
        573.00	     234391.06	     59.813051	     8009.3939
        574.00	     235267.03	     42.610589	     8009.6988
        575.00	     237432.98	     82.433349	     8010.2142
        576.00	     238366.91	     126.83890	     8010.5189
        577.00	     239830.09	     87.125777	     8010.8232
        578.00	     241474.07	     91.870602	     8011.2362
        579.00	     242462.74	     66.839536	     8011.5409
        580.00	     244033.97	     54.165240	     8012.0691
        581.00	     245357.87	     149.81627	     8012.5785
        582.00	     246179.97	     135.79164	     8012.8833
        583.00	     247457.61	     148.69273	     8013.1875
        584.00	     248116.17	     58.020124	     8013.6008
        585.00	     248934.00	     44.858970	     8014.1198
        586.00	     250367.52	     156.23577	     8014.6322
        587.00	     251179.25	     186.52495	     8014.9368
        588.00	     251056.41	     63.620984	     8015.3497
        589.00	     252647.98	     206.93925	     8015.8627
        590.00	     253245.51	     223.02574	     8016.1670
        591.00	     253151.89	     60.743371	     8016.5802
        592.00	     254695.26	     250.33967	     8017.0961
        593.00	     254602.33	     244.53304	     8017.4004
        594.00	     255581.74	     282.42716	     8017.8134
        595.00	     255821.07	     251.47794	     8018.1181
        596.00	     255108.02	     63.917069	     8018.4226
        597.00	     256292.55	     279.92873	     8018.9415
        598.00	     256118.10	     361.79802	     8019.2457
        599.00	     255035.07	     95.444513	     8019.6591
        600.00	     255707.96	     427.03588	     8020.1719
        601.00	     255220.10	     372.34815	     8020.4764
        602.00	     253919.52	     108.83672	     8020.8895
        603.00	     253177.34	     77.420709	     8021.4023
        604.00	     253240.68	     498.43782	     8021.9148
        605.00	     252279.30	     535.53044	     8022.2195
        606.00	     251292.58	     564.50711	     8022.5237
        607.00	     248611.62	     134.38943	     8022.9369
        608.00	     248176.97	     632.01242	     8023.4555
        609.00	     246477.82	     598.18080	     8023.7600
        610.00	     244774.29	     656.49531	     8024.0647
        611.00	     241239.22	     149.09553	     8024.4779
        612.00	     240307.54	     799.76928	     8024.9967
        613.00	     238092.02	     836.30757	     8025.3011
        614.00	     235092.51	     776.24400	     8025.6058
        615.00	     230365.05	     123.14399	     8026.0189
        616.00	     229390.73	     881.07807	     8026.5378
        617.00	     225806.38	     840.63397	     8026.8421
        618.00	     222596.53	     869.50998	     8027.1466
        619.00	     217067.55	     142.98047	     8027.5598
        620.00	     216289.28	     912.80834	     8028.0789
        621.00	     212628.53	     952.50390	     8028.3834
        622.00	     208450.43	     921.47043	     8028.6876
        623.00	     202823.60	     195.21523	     8029.1013
        624.00	     201441.77	     972.16707	     8029.6196
        625.00	     196896.55	     1009.7282	     8029.9242
        626.00	     192846.66	     960.61685	     8030.2287
        627.00	     186523.47	     174.06342	     8030.6419
        628.00	     184602.00	     985.11682	     8031.1605
        629.00	     180533.51	     1027.1003	     8031.4651
        630.00	     176599.62	     773.32890	     8031.7696
        631.00	     170133.27	     187.16445	     8032.1829
        632.00	     168255.15	     1003.0769	     8032.7049
        633.00	     164089.00	     969.79858	     8033.0091
        634.00	     158054.11	     149.89196	     8033.4225
        635.00	     155938.52	     935.93908	     8033.9354
        636.00	     152052.00	     955.08747	     8034.2396
        637.00	     145733.05	     157.51037	     8034.6529
        638.00	     144396.13	     874.82072	     8035.1653
        639.00	     138341.41	     87.061787	     8035.4703
        640.00	     136397.71	     852.74098	     8035.9858
        641.00	     130775.63	     154.04337	     8036.2908
        642.00	     129022.00	     898.02851	     8036.8091
        643.00	     125265.19	     781.04504	     8037.1133
        644.00	     119811.91	     200.98233	     8037.5265
        645.00	     118670.38	     793.14640	     8038.0393
        646.00	     113748.52	     125.40034	     8038.3442
        647.00	     112337.70	     731.81545	     8038.8627
        648.00	     109029.38	     724.00398	     8039.1673
        649.00	     104336.47	     114.67909	     8039.5804
        650.00	     102698.86	     676.87985	     8040.0959
        651.00	     98938.525	     129.69757	     8040.4009
        652.00	     97666.986	     677.49465	     8040.9163
        653.00	     95159.090	     672.84717	     8041.2206
        654.00	     91010.905	     108.14894	     8041.6339
        655.00	     89863.323	     619.77583	     8042.1465
        656.00	     87334.244	     519.47850	     8042.4509
        657.00	     83950.959	     120.87302	     8042.8643
        658.00	     83019.603	     571.70287	     8043.3767
        659.00	     79642.797	     143.12331	     8043.6818
        660.00	     79307.041	     495.87184	     8044.1973
        661.00	     76743.496	     559.32731	     8044.5015
        662.00	     73842.578	     173.32767	     8044.9148
        663.00	     72797.385	     483.95034	     8045.4272
        664.00	     69925.904	     84.669811	     8045.7322
        665.00	     69167.432	     455.21728	     8046.2475
        666.00	     66544.567	     103.18830	     8046.5523
        667.00	     64838.806	     160.37242	     8047.0711
        668.00	     64082.255	     497.45099	     8047.5834
        669.00	     62246.706	     371.96867	     8047.8879
        670.00	     60203.967	     145.82609	     8048.3013
        671.00	     59205.621	     402.34698	     8048.8169
        672.00	     56843.735	     97.516031	     8049.1219
        673.00	     56463.235	     417.65842	     8049.6370
        674.00	     55038.065	     312.27593	     8049.9416
        675.00	     53048.319	     132.02604	     8050.3549
        676.00	     52224.707	     285.71373	     8050.8676
        677.00	     51029.395	     349.25305	     8051.1719
        678.00	     49512.934	     284.37809	     8051.4763
        679.00	     47772.752	     107.71016	     8051.8897
        680.00	     47296.227	     312.65032	     8052.4084
        681.00	     46405.769	     288.77112	     8052.7131
        682.00	     44253.412	     146.27610	     8053.1262
        683.00	     44130.619	     279.66228	     8053.6387
        684.00	     41979.212	     131.63952	     8053.9437
        685.00	     41790.808	     291.04313	     8054.4589
        686.00	     40633.423	     260.75776	     8054.7637
        687.00	     38957.900	     143.33710	     8055.1768
        688.00	     38689.255	     263.40250	     8055.6892
        689.00	     37828.300	     209.81484	     8055.9942
        690.00	     36190.229	     156.05036	     8056.4071
        691.00	     35812.172	     191.32356	     8056.9197
        692.00	     34511.266	     96.127522	     8057.2245
        693.00	     34230.935	     228.62010	     8057.7397
        694.00	     33394.279	     226.75854	     8058.0446
        695.00	     31918.211	     60.001446	     8058.4576
        696.00	     31423.974	     149.53835	     8058.9705
        697.00	     31156.025	     220.86827	     8059.4830
        698.00	     29712.922	     143.18348	     8059.7876
        699.00	     29298.971	     172.67173	     8060.3031
        700.00	     28720.386	     180.12805	     8060.6075
        701.00	     27690.984	     68.802849	     8061.0207
        702.00	     27691.141	     232.20016	     8061.5333
        703.00	     26277.137	     113.04779	     8061.8381
        704.00	     26463.929	     205.79967	     8062.3535
        705.00	     25732.002	     197.18253	     8062.6582
        706.00	     24787.793	     96.421690	     8063.0713
        707.00	     24568.925	     190.27870	     8063.5902
        708.00	     23567.529	     80.901522	     8063.8951
        709.00	     23162.367	     107.86228	     8064.4075
        710.00	     22721.921	     80.589321	     8064.9201
        711.00	     22661.589	     169.15267	     8065.4323
        712.00	     21714.300	     98.188276	     8065.7374
        713.00	     21373.681	     203.09334	     8066.2528
        714.00	     20698.540	     116.14465	     8066.5574
        715.00	     20289.400	     105.77305	     8067.0762
        716.00	     20102.649	     109.17822	     8067.5884
        717.00	     19680.496	     119.92178	     8067.8930
        718.00	     19324.187	     109.02363	     8068.1976
        719.00	     18761.868	     152.92638	     8068.6108
        720.00	     18580.068	     127.37015	     8069.1297
        721.00	     18289.355	     141.58348	     8069.4342
        722.00	     17808.482	     83.008044	     8069.8473
        723.00	     17545.643	     146.57499	     8070.3630
        724.00	     17285.859	     114.65717	     8070.6677
        725.00	     16704.678	     112.36745	     8071.0807
        726.00	     16635.857	     142.88213	     8071.5932
        727.00	     15987.145	     126.67357	     8071.8982
        728.00	     16088.171	     102.45651	     8072.4137
        729.00	     15880.680	     110.08760	     8072.7182
        730.00	     15278.013	     100.18552	     8073.1313
        731.00	     14955.714	     111.34969	     8073.6440
        732.00	     14945.476	     121.09306	     8074.1565
        733.00	     14753.186	     136.43569	     8074.4611
        734.00	     14362.595	     84.151806	     8074.7656
        735.00	     14054.638	     92.269295	     8075.1786
        736.00	     13970.954	     132.75478	     8075.6977
        737.00	     13737.128	     82.597865	     8076.0021
        738.00	     13360.603	     110.28896	     8076.4152
        739.00	     13501.268	     154.78364	     8076.9279
        740.00	     12996.590	     152.27588	     8077.2325
        741.00	     12680.125	     127.33281	     8077.6456
        742.00	     12620.150	     132.35815	     8078.1580
        743.00	     12449.572	     123.45425	     8078.4627
        744.00	     12220.533	     99.026243	     8078.8757
        745.00	     12155.347	     80.762428	     8079.3887
        746.00	     12061.018	     137.24171	     8079.9012
        747.00	     11795.146	     83.345529	     8080.2061
        748.00	     11714.755	     88.373986	     8080.7214
        749.00	     11464.981	     81.694121	     8081.0257
        750.00	     11345.493	     144.07742	     8081.3303
        751.00	     11189.992	     116.35326	     8081.7435
        752.00	     10953.616	     79.632312	     8082.2623
        753.00	     10967.054	     141.51276	     8082.5668
        754.00	     10545.140	     114.38192	     8082.8713
        755.00	     10667.769	     92.240428	     8083.2844
        756.00	     10353.935	     141.90342	     8083.8033
        757.00	     10431.021	     74.161255	     8084.1076
        758.00	     10302.503	     67.379229	     8084.4123
        759.00	     10393.201	     87.689548	     8084.9343
        760.00	     9884.2082	     75.726506	     8085.2390
        761.00	     10012.790	     85.247226	     8085.7547
        762.00	     9887.7728	     134.15289	     8086.0587
        763.00	     9725.8951	     117.61298	     8086.4722
        764.00	     9653.5077	     101.76549	     8086.9877
        765.00	     9574.0178	     87.559070	     8087.2927
        766.00	     9530.1340	     102.86002	     8087.8082
        767.00	     9535.6713	     113.74680	     8088.1124
        768.00	     9289.7546	     105.59687	     8088.5257
        769.00	     9131.8600	     97.427478	     8089.0385
        770.00	     9151.1332	     80.585619	     8089.5510
        771.00	     9152.7832	     80.463790	     8089.8560
        772.00	     9247.6771	     138.49036	     8090.3710
        773.00	     9000.2383	     119.16745	     8090.6756
        774.00	     8904.7145	     108.66142	     8091.0889
        775.00	     8886.4629	     135.08781	     8091.6015
        776.00	     8864.1163	     143.27624	     8091.9062
        777.00	     8661.8505	     96.639069	     8092.3191
        778.00	     8745.6858	     100.84225	     8092.8351
        779.00	     8767.5187	     185.34887	     8093.1394
        780.00	     8634.2386	     74.568457	     8093.5527
        781.00	     8520.5990	     127.26792	     8094.0654
        782.00	     8687.6481	     120.44116	     8094.3698
        783.00	     8653.5299	     144.00696	     8094.6742
        784.00	     8239.9574	     113.32090	     8095.0874
        785.00	     8352.0307	     125.85257	     8095.6061
        786.00	     8424.2577	     84.545205	     8095.9110
        787.00	     8392.8261	     72.232460	     8096.4299
        788.00	     8327.6435	     159.79219	     8096.9425
        789.00	     8416.7667	     128.15691	     8097.4549
        790.00	     7964.7954	     163.67140	     8097.7594
        791.00	     8250.3490	     82.146712	     8098.2749
        792.00	     7868.7338	     97.447176	     8098.5798
        793.00	     8297.7502	     106.87089	     8099.0954
        794.00	     7927.2000	     128.17349	     8099.4002
        795.00	     8140.5919	     70.361075	     8099.9157
        796.00	     7771.9913	     170.44316	     8100.2199
        797.00	     7579.3973	     110.39000	     8100.6332
        798.00	     7103.7339	     83.032945	     8101.1461
        799.00	     6962.7004	     99.490794	     8101.6584
        800.00	     6852.0547	     81.160396	     8101.9634
