Title=200220_em_EtOH_2,0uM_Rho6G
Comment=
Signature=ISS_Experiment_Ver_1_0
Timestamp=Thu Feb 20 15:56:37 2020
Product=Vinci2
SoftwareVersion=BETA.2.4
BuildNumber=234
RealTimeStart=6703.73025358

AcquisitionType=Photon Counting
AcquisitionFormat=L
AcquisitionSide=Right
Detector Gains=(0.0, 0.0)

Measurable=Intensity
MaxIterations=10

RightEmissionWavelengthBandwidth=8.0
ExcitationWavelengthBandwidth=8.0
Visualization=Y:Intensity,X:EmissionWavelength,PlotType:2D


EmissionWavelength=type:numeric,unit:nm,from:400.0,to:800.0,step:1.0
ExcitationWavelength=type:numeric,unit:nm,fixed:529.0

Space=EmissionWavelength
Columns=EmissionWavelength,Intensity,IntensityStdError,RealTime
[Data]
        400.00	     584.70094	     2.3209664	     6706.7387
        401.00	     584.80109	     7.1996596	     6707.3104
        402.00	     589.76795	     5.6684534	     6707.6149
        403.00	     587.19506	     7.0442657	     6708.0281
        404.00	     598.52582	     4.0722511	     6708.5407
        405.00	     584.49580	     5.3403014	     6708.8452
        406.00	     587.06077	     4.2293123	     6709.1496
        407.00	     584.97349	     6.3735267	     6709.5629
        408.00	     592.05218	     3.5985842	     6710.0819
        409.00	     592.69440	     4.8508407	     6710.3860
        410.00	     599.39083	     5.5744569	     6710.6907
        411.00	     601.86429	     4.8281193	     6711.1039
        412.00	     608.10694	     5.0159821	     6711.6227
        413.00	     612.61753	     3.8293003	     6711.9269
        414.00	     620.37548	     6.9455425	     6712.2316
        415.00	     629.02580	     4.5589019	     6712.6449
        416.00	     635.96142	     5.5810756	     6713.1637
        417.00	     635.11328	     3.5775593	     6713.4684
        418.00	     661.37450	     3.0370183	     6713.7728
        419.00	     671.03345	     4.6444097	     6714.1857
        420.00	     673.16115	     4.8980772	     6714.7047
        421.00	     693.09007	     4.4112005	     6715.0092
        422.00	     713.36438	     5.9594479	     6715.4224
        423.00	     715.10078	     8.6297984	     6715.9351
        424.00	     717.82581	     5.2568913	     6716.2393
        425.00	     744.15562	     6.6279698	     6716.6527
        426.00	     750.63363	     5.5076088	     6717.1653
        427.00	     768.68224	     2.7156965	     6717.4701
        428.00	     780.94467	     5.7171619	     6717.9886
        429.00	     802.95536	     7.0635236	     6718.2930
        430.00	     812.30558	     5.6780311	     6718.5977
        431.00	     851.60690	     9.0118140	     6719.0108
        432.00	     847.86968	     7.1118413	     6719.5298
        433.00	     885.89020	     7.2626503	     6719.8340
        434.00	     891.94726	     5.1401806	     6720.1385
        435.00	     924.28125	     7.4014908	     6720.5517
        436.00	     935.30517	     7.8352920	     6721.0708
        437.00	     977.04154	     8.3596002	     6721.3753
        438.00	     987.22500	     6.2031381	     6721.8909
        439.00	     985.68578	     4.1680639	     6722.1951
        440.00	     1041.6408	     6.3772333	     6722.6085
        441.00	     1048.1498	     5.9999859	     6723.1213
        442.00	     1074.5945	     7.5098026	     6723.4255
        443.00	     1100.4281	     7.2888714	     6723.8389
        444.00	     1113.5415	     10.569514	     6724.3513
        445.00	     1134.6966	     6.3049381	     6724.6560
        446.00	     1171.7764	     7.3975902	     6725.0691
        447.00	     1204.6255	     8.6391204	     6725.5818
        448.00	     1210.8774	     5.7734118	     6725.8862
        449.00	     1250.7397	     9.9420574	     6726.2995
        450.00	     1268.9252	     8.1233870	     6726.8121
        451.00	     1294.5863	     9.5499525	     6727.1166
        452.00	     1318.9919	     6.9029025	     6727.4214
        453.00	     1332.0352	     10.604741	     6727.9431
        454.00	     1354.2218	     7.7254598	     6728.4554
        455.00	     1388.5337	     6.8804104	     6728.7632
        456.00	     1387.1046	     8.1850205	     6729.2791
        457.00	     1426.4664	     9.8764380	     6729.5836
        458.00	     1445.7381	     10.017912	     6729.9967
        459.00	     1468.8167	     7.9680152	     6730.5091
        460.00	     1498.8078	     9.6842551	     6730.8138
        461.00	     1516.2645	     9.8671277	     6731.1338
        462.00	     1542.3863	     8.0668989	     6731.4382
        463.00	     1551.8723	     7.5050812	     6731.7428
        464.00	     1584.2177	     10.043370	     6732.1559
        465.00	     1610.6867	     9.4367016	     6732.6718
        466.00	     1634.6935	     8.4779295	     6732.9765
        467.00	     1658.0825	     10.232381	     6733.4921
        468.00	     1703.5273	     8.7161311	     6734.0046
        469.00	     1712.4305	     8.9379143	     6734.3092
        470.00	     1736.5087	     9.5739668	     6734.7221
        471.00	     1772.6978	     8.5746137	     6735.2347
        472.00	     1806.3998	     14.358633	     6735.5393
        473.00	     1831.8073	     7.2718852	     6735.9525
        474.00	     1848.1934	     10.383294	     6736.4652
        475.00	     1881.0073	     13.546239	     6736.7695
        476.00	     1911.3507	     11.451088	     6737.1828
        477.00	     1973.7002	     9.4592140	     6737.6955
        478.00	     2003.3614	     14.371532	     6737.9998
        479.00	     2065.4898	     5.7873330	     6738.4132
        480.00	     2121.8664	     12.299038	     6738.9257
        481.00	     2188.3643	     14.487933	     6739.2302
        482.00	     2287.4301	     4.9800806	     6739.6434
        483.00	     2351.7703	     13.701692	     6740.1559
        484.00	     2441.7873	     18.912195	     6740.4604
        485.00	     2606.9286	     15.469613	     6740.8738
        486.00	     2686.7758	     26.836340	     6741.3862
        487.00	     2841.5088	     22.058060	     6741.6908
        488.00	     3103.4980	     15.873675	     6742.1041
        489.00	     3222.0250	     30.848674	     6742.6166
        490.00	     3495.0904	     39.199080	     6742.9213
        491.00	     3765.0996	     33.259365	     6743.2255
        492.00	     4175.4418	     14.718801	     6743.6389
        493.00	     4545.2557	     12.694947	     6744.1579
        494.00	     4860.8780	     76.263090	     6744.6703
        495.00	     5330.8770	     80.706031	     6744.9747
        496.00	     6040.5524	     19.018140	     6745.3878
        497.00	     6507.2353	     108.87025	     6745.9006
        498.00	     7408.8463	     116.57664	     6746.2052
        499.00	     8791.0758	     24.377031	     6746.5098
        500.00	     10160.856	     27.972634	     6747.0318
        501.00	     11311.216	     220.52074	     6747.5440
        502.00	     13145.818	     255.13085	     6747.8486
        503.00	     16076.313	     27.193675	     6748.2619
        504.00	     17869.260	     387.06361	     6748.7744
        505.00	     21122.729	     429.40699	     6749.0789
        506.00	     26045.646	     38.612784	     6749.4921
        507.00	     29201.074	     719.29203	     6750.0047
        508.00	     34507.464	     796.58755	     6750.3092
        509.00	     38583.889	     920.33165	     6750.7223
        510.00	     50548.549	     48.806357	     6751.0270
        511.00	     55948.974	     1415.5394	     6751.5425
        512.00	     65428.644	     1513.7219	     6751.8471
        513.00	     76522.618	     1713.7683	     6752.1516
        514.00	     91960.742	     79.741933	     6752.5649
        515.00	     99680.780	     2040.0091	     6753.0837
        516.00	     112384.92	     1936.8363	     6753.3880
        517.00	     124634.20	     1874.6490	     6753.6928
        518.00	     139535.85	     80.026112	     6754.1059
        519.00	     145046.39	     1525.2470	     6754.6248
        520.00	     155603.37	     25.532870	     6754.9296
        521.00	     158696.51	     863.71765	     6755.4478
        522.00	     163308.39	     628.93629	     6755.7526
        523.00	     168068.64	     48.002120	     6756.1658
        524.00	     169687.17	     425.91768	     6756.6782
        525.00	     171753.71	     334.02316	     6756.9827
        526.00	     174268.02	     31.716921	     6757.3960
        527.00	     175278.75	     203.26958	     6757.9087
        528.00	     176804.86	     156.55114	     6758.2134
        529.00	     178028.65	     23.673665	     6758.6263
        530.00	     179034.89	     113.47650	     6759.1391
        531.00	     179816.27	     92.214026	     6759.4432
        532.00	     181116.72	     57.243579	     6759.8567
        533.00	     182103.36	     73.134135	     6760.3692
        534.00	     183081.53	     79.803412	     6760.6737
        535.00	     184202.07	     81.342891	     6760.9783
        536.00	     185458.64	     36.817117	     6761.3914
        537.00	     186495.29	     56.021233	     6761.9104
        538.00	     187910.64	     44.354097	     6762.2152
        539.00	     188974.44	     88.054888	     6762.7336
        540.00	     190341.28	     30.099228	     6763.0383
        541.00	     191707.15	     57.268710	     6763.5536
        542.00	     192909.02	     47.108330	     6763.8585
        543.00	     194137.77	     57.703639	     6764.2715
        544.00	     195523.66	     55.714368	     6764.7842
        545.00	     196744.60	     32.067738	     6765.0885
        546.00	     198203.02	     39.952572	     6765.5017
        547.00	     199371.20	     52.866468	     6766.0145
        548.00	     200909.42	     38.834599	     6766.3188
        549.00	     202390.50	     47.610989	     6766.7321
        550.00	     203758.74	     45.055542	     6767.2448
        551.00	     204896.34	     38.988836	     6767.5493
        552.00	     206306.08	     37.334563	     6767.9624
        553.00	     207918.55	     36.682040	     6768.4751
        554.00	     209193.00	     35.754271	     6768.7799
        555.00	     210767.96	     45.690700	     6769.2952
        556.00	     212107.58	     69.485711	     6769.5998
        557.00	     213861.61	     44.195193	     6769.9045
        558.00	     215404.47	     41.926694	     6770.3173
        559.00	     217062.89	     45.565053	     6770.8363
        560.00	     218292.31	     46.320478	     6771.1407
        561.00	     219941.66	     42.976166	     6771.4453
        562.00	     221587.11	     53.669942	     6771.8584
        563.00	     223169.08	     53.260303	     6772.3772
        564.00	     224813.33	     38.382685	     6772.6817
        565.00	     226502.05	     83.024463	     6772.9861
        566.00	     228237.68	     45.804638	     6773.3995
        567.00	     229732.77	     62.149261	     6773.9185
        568.00	     231577.69	     51.404717	     6774.4339
        569.00	     233487.58	     54.244449	     6774.7388
        570.00	     234906.66	     75.249677	     6775.2544
        571.00	     236536.40	     55.075309	     6775.5587
        572.00	     238310.04	     68.599637	     6775.8634
        573.00	     240190.77	     68.649821	     6776.3852
        574.00	     241692.82	     87.011766	     6776.6894
        575.00	     243818.69	     71.350203	     6777.1028
        576.00	     245203.14	     63.323155	     6777.6154
        577.00	     247030.77	     70.264325	     6777.9201
        578.00	     248763.97	     38.800964	     6778.3331
        579.00	     250918.58	     37.518804	     6778.8457
        580.00	     252952.16	     69.008482	     6779.1502
        581.00	     254728.60	     47.636084	     6779.5635
        582.00	     256319.53	     87.762826	     6780.0762
        583.00	     258312.55	     59.668700	     6780.3808
        584.00	     260115.34	     59.064256	     6780.7936
        585.00	     262034.78	     69.340438	     6781.3063
        586.00	     263926.60	     36.689010	     6781.6110
        587.00	     265756.11	     39.631056	     6782.0241
        588.00	     267418.09	     28.861926	     6782.5368
        589.00	     269456.70	     50.517666	     6782.8411
        590.00	     271292.45	     63.830892	     6783.1459
        591.00	     273091.44	     68.306693	     6783.6677
        592.00	     275460.51	     93.023377	     6783.9723
        593.00	     276683.21	     45.204665	     6784.3854
        594.00	     278750.76	     90.272794	     6784.9008
        595.00	     280766.85	     50.187556	     6785.2058
        596.00	     283123.22	     73.642396	     6785.7211
        597.00	     285599.57	     83.614325	     6786.0256
        598.00	     287208.07	     58.127539	     6786.4389
        599.00	     289567.54	     80.214709	     6786.9517
        600.00	     291543.32	     108.36881	     6787.2558
        601.00	     293522.52	     73.417718	     6787.6693
        602.00	     296203.72	     92.916283	     6788.1851
        603.00	     298298.75	     72.205856	     6788.4894
        604.00	     300323.98	     44.182829	     6788.9027
        605.00	     303242.45	     93.732812	     6789.4152
        606.00	     305465.02	     102.60115	     6789.7197
        607.00	     307528.47	     105.44161	     6790.0243
        608.00	     309623.47	     59.278350	     6790.4375
        609.00	     312525.22	     110.20960	     6790.9564
        610.00	     315238.84	     118.55414	     6791.2607
        611.00	     317246.32	     146.79710	     6791.5652
        612.00	     319340.94	     71.955940	     6791.9785
        613.00	     322240.96	     129.66464	     6792.4972
        614.00	     323817.16	     51.202598	     6792.8021
        615.00	     326394.92	     173.04486	     6793.3204
        616.00	     328404.11	     51.364683	     6793.6254
        617.00	     330660.75	     267.55000	     6794.1409
        618.00	     332982.90	     70.294651	     6794.4455
        619.00	     334626.76	     87.360572	     6794.9613
        620.00	     337719.33	     300.06023	     6795.4738
        621.00	     339801.84	     296.70828	     6795.7781
        622.00	     340917.17	     113.94930	     6796.1914
        623.00	     342871.83	     72.348234	     6796.7042
        624.00	     345471.62	     332.56166	     6797.2167
        625.00	     346948.34	     369.91620	     6797.5209
        626.00	     347883.79	     66.061149	     6797.9343
        627.00	     350438.03	     488.95155	     6798.4499
        628.00	     350815.40	     476.12304	     6798.7544
        629.00	     351504.59	     153.20279	     6799.1678
        630.00	     353138.01	     541.33999	     6799.6803
        631.00	     353661.63	     620.36916	     6799.9849
        632.00	     352202.09	     121.89704	     6800.3981
        633.00	     353859.86	     700.25578	     6800.9106
        634.00	     353130.95	     703.99021	     6801.2151
        635.00	     349647.72	     177.90977	     6801.6283
        636.00	     350580.62	     936.09170	     6802.1411
        637.00	     348949.26	     1016.4531	     6802.4455
        638.00	     343985.23	     131.52242	     6802.8586
        639.00	     344460.24	     1071.6240	     6803.3715
        640.00	     340930.02	     1138.0578	     6803.6759
        641.00	     338538.01	     1119.4844	     6803.9801
        642.00	     331909.38	     216.07972	     6804.3936
        643.00	     331563.87	     1342.5463	     6804.9125
        644.00	     326594.89	     1336.2581	     6805.2166
        645.00	     322435.32	     1297.9992	     6805.5211
        646.00	     315919.76	     255.69396	     6805.9345
        647.00	     314775.60	     1322.7690	     6806.4533
        648.00	     309147.75	     1357.3567	     6806.7581
        649.00	     301522.89	     272.02343	     6807.0624
        650.00	     299863.60	     1391.7805	     6807.5842
        651.00	     294998.57	     1419.2086	     6807.8887
        652.00	     287148.71	     221.48040	     6808.3018
        653.00	     286101.86	     1296.0979	     6808.8144
        654.00	     277770.33	     199.95178	     6809.1194
        655.00	     272445.68	     180.45515	     6809.6363
        656.00	     267399.00	     210.21995	     6810.1478
        657.00	     265893.87	     1288.8097	     6810.6601
        658.00	     260774.57	     1380.8363	     6810.9646
        659.00	     252364.79	     181.41405	     6811.3775
        660.00	     250340.77	     1314.2094	     6811.8901
        661.00	     245541.21	     1285.9905	     6812.1949
        662.00	     239578.50	     1139.0859	     6812.4992
        663.00	     232084.69	     136.39131	     6812.9125
        664.00	     230308.67	     1336.7901	     6813.4314
        665.00	     224639.55	     1263.6683	     6813.7357
        666.00	     220068.57	     1230.4757	     6814.0403
        667.00	     212472.11	     289.34766	     6814.4535
        668.00	     209870.15	     1139.1686	     6814.9725
        669.00	     202709.83	     194.33599	     6815.2772
        670.00	     200437.42	     1257.4795	     6815.7954
        671.00	     195143.49	     1141.0174	     6816.1001
        672.00	     187819.67	     324.33473	     6816.5133
        673.00	     186283.22	     1192.7237	     6817.0293
        674.00	     181336.25	     1228.7616	     6817.3335
        675.00	     173909.43	     213.18102	     6817.7466
        676.00	     171991.70	     1135.0470	     6818.2595
        677.00	     167770.78	     1145.3876	     6818.5641
        678.00	     160535.36	     242.30743	     6818.9771
        679.00	     155763.52	     183.91854	     6819.4899
        680.00	     153965.88	     835.11720	     6820.0021
        681.00	     149988.50	     971.77739	     6820.3069
        682.00	     143257.51	     270.90592	     6820.6116
        683.00	     141369.76	     1030.6282	     6821.1332
        684.00	     134925.65	     262.13478	     6821.4379
        685.00	     133319.59	     937.02018	     6821.9533
        686.00	     129393.31	     889.50571	     6822.2578
        687.00	     123038.95	     189.49945	     6822.6711
        688.00	     121764.17	     896.54765	     6823.1838
        689.00	     118216.97	     825.29775	     6823.4882
        690.00	     114678.26	     845.95669	     6823.7925
        691.00	     109304.41	     147.72699	     6824.2059
        692.00	     108034.21	     812.21200	     6824.7248
        693.00	     104838.75	     725.36736	     6825.0291
        694.00	     101249.66	     707.88749	     6825.3338
        695.00	     96938.426	     183.73016	     6825.7471
        696.00	     95765.139	     723.36093	     6826.2658
        697.00	     92767.970	     655.36611	     6826.5701
        698.00	     89860.521	     639.53654	     6826.8746
        699.00	     85781.306	     142.93711	     6827.2880
        700.00	     85391.547	     646.42328	     6827.8066
        701.00	     81021.179	     229.52807	     6828.1115
        702.00	     79698.911	     628.54707	     6828.6303
        703.00	     77733.207	     523.62829	     6828.9344
        704.00	     74112.267	     214.84912	     6829.3478
        705.00	     73091.686	     505.41989	     6829.8602
        706.00	     71022.886	     548.83336	     6830.1649
        707.00	     68021.665	     140.10860	     6830.5781
        708.00	     67481.029	     549.00774	     6831.0908
        709.00	     64936.313	     429.58445	     6831.3950
        710.00	     62320.066	     147.17932	     6831.8084
        711.00	     62042.072	     418.61440	     6832.3210
        712.00	     59939.772	     453.98285	     6832.6257
        713.00	     57546.757	     217.42629	     6833.0387
        714.00	     57193.759	     399.88100	     6833.5514
        715.00	     55256.231	     348.30141	     6833.8557
        716.00	     53226.269	     85.893791	     6834.2690
        717.00	     52894.472	     396.76224	     6834.7817
        718.00	     51255.787	     378.27068	     6835.0862
        719.00	     49148.537	     245.74191	     6835.4993
        720.00	     49113.535	     376.20455	     6836.0149
        721.00	     47795.588	     345.60856	     6836.3194
        722.00	     45792.228	     188.76162	     6836.7327
        723.00	     45056.011	     140.94778	     6837.2456
        724.00	     44676.484	     423.26539	     6837.7580
        725.00	     43263.666	     260.48373	     6838.0626
        726.00	     41651.516	     186.07108	     6838.4756
        727.00	     41502.127	     291.67211	     6838.9882
        728.00	     40251.984	     286.33068	     6839.2929
        729.00	     39375.001	     267.03631	     6839.5971
        730.00	     37981.730	     197.09413	     6840.0105
        731.00	     37626.113	     313.48645	     6840.5293
        732.00	     36251.394	     150.78608	     6840.8341
        733.00	     36069.910	     312.03308	     6841.3525
        734.00	     35089.740	     227.35745	     6841.6570
        735.00	     33611.027	     123.58508	     6842.0704
        736.00	     33567.281	     210.31232	     6842.5862
        737.00	     33199.805	     280.14654	     6842.8905
        738.00	     31789.035	     223.81472	     6843.3037
        739.00	     31512.445	     272.52130	     6843.8163
        740.00	     30574.062	     287.51554	     6844.1209
        741.00	     29556.043	     149.29997	     6844.5341
        742.00	     29517.744	     254.06379	     6845.0466
        743.00	     28864.777	     344.15214	     6845.3511
        744.00	     27804.387	     113.41383	     6845.7642
        745.00	     27773.730	     225.37380	     6846.2771
        746.00	     26403.041	     223.89730	     6846.5817
        747.00	     26241.239	     135.77968	     6847.0971
        748.00	     25746.249	     233.21270	     6847.4019
        749.00	     25153.540	     114.26356	     6847.8147
        750.00	     24872.908	     236.12898	     6848.3278
        751.00	     24028.022	     196.59142	     6848.6324
        752.00	     23980.948	     213.11795	     6849.1479
        753.00	     23295.028	     196.58195	     6849.4525
        754.00	     22959.297	     227.38631	     6849.7565
        755.00	     21998.166	     89.211938	     6850.1699
        756.00	     21863.743	     263.52296	     6850.6886
        757.00	     21337.562	     202.10486	     6850.9934
        758.00	     21027.398	     162.56057	     6851.2976
        759.00	     20392.444	     142.89628	     6851.7107
        760.00	     20575.163	     89.519294	     6852.2299
        761.00	     19566.514	     124.68283	     6852.5341
        762.00	     19326.470	     100.77676	     6852.9474
        763.00	     19170.542	     231.37537	     6853.4603
        764.00	     18428.830	     121.92558	     6853.7650
        765.00	     18391.908	     103.34219	     6854.2802
        766.00	     18109.321	     123.65600	     6854.5846
        767.00	     17958.469	     186.49251	     6854.8893
        768.00	     17270.524	     198.49613	     6855.3024
        769.00	     17088.780	     172.05708	     6855.8215
        770.00	     16641.779	     232.21140	     6856.1257
        771.00	     16647.151	     149.12639	     6856.4304
        772.00	     15715.342	     83.484185	     6856.8434
        773.00	     15781.438	     118.07232	     6857.3621
        774.00	     15573.964	     179.91965	     6857.6668
        775.00	     15007.443	     153.14658	     6858.0800
        776.00	     14607.256	     152.25626	     6858.5928
        777.00	     14758.166	     131.67917	     6858.8972
        778.00	     14329.406	     153.53146	     6859.3107
        779.00	     14156.458	     157.12363	     6859.8229
        780.00	     14049.805	     109.75443	     6860.1272
        781.00	     13816.242	     154.76439	     6860.5406
        782.00	     13759.348	     111.99145	     6861.0533
        783.00	     13103.979	     181.77559	     6861.3575
        784.00	     13255.135	     79.472796	     6861.7707
        785.00	     12767.440	     66.045317	     6862.2837
        786.00	     12619.139	     136.36171	     6862.7964
        787.00	     12617.256	     123.83718	     6863.3088
        788.00	     12452.879	     187.74744	     6863.6132
        789.00	     12021.861	     113.62280	     6864.0265
        790.00	     12065.259	     121.75281	     6864.5391
        791.00	     11771.199	     120.66086	     6864.8441
        792.00	     11794.796	     147.78302	     6865.3623
        793.00	     11638.703	     93.057443	     6865.8751
        794.00	     11418.400	     175.78269	     6866.1794
        795.00	     11281.181	     150.75665	     6866.5928
        796.00	     10882.666	     158.22209	     6867.1055
        797.00	     10401.643	     106.58165	     6867.4098
        798.00	     10108.877	     122.66339	     6867.8230
        799.00	     9370.3296	     87.794123	     6868.3358
        800.00	     9077.9668	     146.38843	     6868.6406
