Title=200220_em_0,1MNaOH_2,0uM_NRA1
Comment=
Signature=ISS_Experiment_Ver_1_0
Timestamp=Thu Feb 20 17:43:46 2020
Product=Vinci2
SoftwareVersion=BETA.2.4
BuildNumber=234
RealTimeStart=8700.56742506

AcquisitionType=Photon Counting
AcquisitionFormat=L
AcquisitionSide=Right
Detector Gains=(0.0, 0.0)

Measurable=Intensity
MaxIterations=10

RightEmissionWavelengthBandwidth=8.0
ExcitationWavelengthBandwidth=8.0
Visualization=Y:Intensity,X:EmissionWavelength,PlotType:2D


EmissionWavelength=type:numeric,unit:nm,from:400.0,to:800.0,step:1.0
ExcitationWavelength=type:numeric,unit:nm,fixed:553.0

Space=EmissionWavelength
Columns=EmissionWavelength,Intensity,IntensityStdError,RealTime
[Data]
        400.00	     10.143454	     1.3063539	     8703.8201
        401.00	     12.983834	     1.3050266	     8704.3916
        402.00	     11.007412	     2.0454046	     8704.6962
        403.00	     12.684126	     1.5654210	     8705.0007
        404.00	     11.410055	     1.3284536	     8705.4138
        405.00	     15.157731	     2.2154636	     8705.9328
        406.00	     13.978720	     1.1620795	     8706.2370
        407.00	     13.620929	    0.87922717	     8706.5417
        408.00	     14.283800	     1.1610154	     8706.9549
        409.00	     13.368365	     1.9968416	     8707.4738
        410.00	     10.876180	     1.5950758	     8707.7786
        411.00	     10.198017	     1.0412590	     8708.2968
        412.00	     10.884157	     1.3542063	     8708.6015
        413.00	     11.114581	     1.1441777	     8709.0148
        414.00	     12.140642	    0.84655562	     8709.5275
        415.00	     11.251681	     1.3810947	     8709.8318
        416.00	     10.126049	    0.90465902	     8710.2450
        417.00	     11.842330	     1.3170304	     8710.7578
        418.00	     13.458799	     1.3037872	     8711.0623
        419.00	     13.133781	     1.2881708	     8711.3667
        420.00	     12.358720	     1.8037003	     8711.7798
        421.00	     13.548128	    0.98022989	     8712.2988
        422.00	     10.929526	     1.2277739	     8712.6030
        423.00	     12.776645	     1.2891979	     8712.9077
        424.00	     8.2911092	     1.0692758	     8713.3208
        425.00	     10.408418	     1.3464830	     8713.8398
        426.00	     9.7295351	     1.7455488	     8714.3521
        427.00	     11.976866	     1.7681567	     8714.6570
        428.00	     10.601164	     1.2931732	     8715.1757
        429.00	     13.776424	     1.3345563	     8715.4802
        430.00	     10.904847	     1.3317769	     8715.8933
        431.00	     10.828105	     1.9203782	     8716.4091
        432.00	     14.287418	     1.0331342	     8716.7135
        433.00	     13.382027	    0.93498284	     8717.1267
        434.00	     15.678204	     1.0885842	     8717.6394
        435.00	     13.947187	     1.0215985	     8717.9440
        436.00	     18.394120	     1.3583558	     8718.3569
        437.00	     14.984197	     1.5604042	     8718.8696
        438.00	     18.311839	     1.7393362	     8719.1744
        439.00	     18.370719	     1.2714257	     8719.6932
        440.00	     17.112687	     1.5399692	     8719.9974
        441.00	     19.253124	     1.5176288	     8720.4105
        442.00	     20.315546	     2.0084705	     8720.9233
        443.00	     20.048932	     1.1603758	     8721.2280
        444.00	     18.882789	    0.95686814	     8721.5321
        445.00	     17.569943	     1.9239342	     8721.9455
        446.00	     21.136386	     2.3000428	     8722.4641
        447.00	     22.600151	     1.5399735	     8722.7686
        448.00	     21.610247	     2.5803174	     8723.0730
        449.00	     20.459210	     2.0346467	     8723.4866
        450.00	     26.772715	     2.2575373	     8724.0051
        451.00	     23.911169	     1.8557499	     8724.3096
        452.00	     25.467117	     1.5551344	     8724.7228
        453.00	     24.380737	     2.0334158	     8725.2356
        454.00	     26.718890	     1.9627404	     8725.5403
        455.00	     24.377074	     2.0346389	     8725.9533
        456.00	     29.608329	     2.4444381	     8726.4688
        457.00	     23.849571	     1.8919269	     8726.7736
        458.00	     29.255815	     1.0357987	     8727.1867
        459.00	     24.492193	     1.5445527	     8727.6992
        460.00	     27.749308	     1.1949463	     8728.0037
        461.00	     31.106011	     1.4765930	     8728.4170
        462.00	     36.849645	     2.7135587	     8728.9298
        463.00	     34.142377	     1.9612955	     8729.2342
        464.00	     35.145734	     1.6613364	     8729.5388
        465.00	     35.949167	     2.8820141	     8730.0607
        466.00	     35.418635	     1.7580614	     8730.3649
        467.00	     36.118396	     2.2772992	     8730.7782
        468.00	     36.774963	     2.3059416	     8731.2908
        469.00	     41.513128	     1.9896848	     8731.5954
        470.00	     37.058272	     1.9583504	     8732.0086
        471.00	     43.148489	     2.1965911	     8732.5211
        472.00	     41.226478	     2.1891736	     8732.8259
        473.00	     41.995644	     1.4892894	     8733.2388
        474.00	     48.385774	     1.7828814	     8733.7516
        475.00	     42.207997	     1.8354010	     8734.0562
        476.00	     47.777977	     2.5718861	     8734.4690
        477.00	     44.825069	     2.3547057	     8734.9819
        478.00	     54.529743	     2.9079662	     8735.2863
        479.00	     52.039301	     2.1935917	     8735.6995
        480.00	     51.642400	     2.1886816	     8736.2121
        481.00	     52.693650	     2.7554399	     8736.5168
        482.00	     55.284506	     2.2384417	     8737.0323
        483.00	     57.280838	     2.1079526	     8737.3369
        484.00	     59.431542	     3.2969357	     8737.7501
        485.00	     59.787044	     2.9713834	     8738.2629
        486.00	     60.569609	     3.8674451	     8738.7751
        487.00	     60.858880	     3.4008729	     8739.0798
        488.00	     59.922679	     2.1733614	     8739.3842
        489.00	     60.122312	     2.1744599	     8739.7974
        490.00	     63.245779	     2.9224839	     8740.3162
        491.00	     67.127870	     2.5386578	     8740.6206
        492.00	     66.146932	     1.9649397	     8740.9253
        493.00	     70.569084	     2.0721470	     8741.3385
        494.00	     70.294925	     3.0619673	     8741.8575
        495.00	     76.379599	     2.4402405	     8742.1622
        496.00	     75.212524	     1.8402589	     8742.6804
        497.00	     81.588559	     2.9395396	     8742.9850
        498.00	     87.656805	     2.2184489	     8743.3983
        499.00	     94.067667	     3.4281594	     8743.9141
        500.00	     96.272890	     2.7772588	     8744.2187
        501.00	     110.84172	     2.7240775	     8744.6315
        502.00	     118.57233	     3.2484574	     8744.9360
        503.00	     138.16559	     5.0694693	     8745.2406
        504.00	     151.46330	     2.3193389	     8745.7627
        505.00	     166.83228	     4.4888085	     8746.0672
        506.00	     183.25983	     3.7520192	     8746.3717
        507.00	     211.68797	     2.8611696	     8746.7846
        508.00	     232.21600	     6.7503178	     8747.3038
        509.00	     256.32109	     5.0091083	     8747.6083
        510.00	     294.44907	     6.7325169	     8748.1240
        511.00	     322.89394	     4.7504591	     8748.4286
        512.00	     352.47786	     7.3918825	     8748.9439
        513.00	     385.51219	     7.4108535	     8749.2483
        514.00	     419.72593	     9.4138813	     8749.6617
        515.00	     435.58561	     5.1554950	     8750.1744
        516.00	     484.50894	     7.0655950	     8750.4792
        517.00	     500.72512	     6.4319674	     8750.9946
        518.00	     529.39618	     8.0902114	     8751.2989
        519.00	     571.96206	     6.6930761	     8751.7122
        520.00	     598.02622	     8.1846481	     8752.2281
        521.00	     632.77915	     5.3510163	     8752.5329
        522.00	     642.28507	     7.4904556	     8753.0481
        523.00	     674.36662	     8.7648573	     8753.3527
        524.00	     705.98195	     9.2988009	     8753.6574
        525.00	     715.22912	     9.6849178	     8754.1792
        526.00	     735.34685	     9.3436308	     8754.4839
        527.00	     756.58355	     10.576743	     8754.9994
        528.00	     761.51187	     11.005581	     8755.3036
        529.00	     791.09787	     8.3246709	     8755.6082
        530.00	     804.91180	     8.5087844	     8756.0215
        531.00	     829.53425	     10.398875	     8756.5404
        532.00	     884.84037	     12.894802	     8756.8449
        533.00	     986.85102	     20.508299	     8757.1491
        534.00	     1341.6142	     7.6624467	     8757.5625
        535.00	     1797.4825	     119.51619	     8758.0814
        536.00	     3202.0577	     256.36761	     8758.3860
        537.00	     6994.9083	     26.257816	     8758.7990
        538.00	     9990.3969	     754.07659	     8759.3115
        539.00	     15839.181	     943.76041	     8759.6161
        540.00	     23288.286	     1131.9131	     8759.9206
        541.00	     35305.600	     56.377229	     8760.3338
        542.00	     41814.640	     1578.2999	     8760.8527
        543.00	     52610.989	     1611.0421	     8761.1570
        544.00	     67532.969	     79.042922	     8761.5703
        545.00	     74152.170	     1586.6441	     8762.0831
        546.00	     84538.500	     1476.3083	     8762.3875
        547.00	     97455.736	     54.122584	     8762.8006
        548.00	     103248.80	     1280.4988	     8763.3131
        549.00	     114563.75	     56.869084	     8763.6180
        550.00	     119418.44	     1085.0004	     8764.1365
        551.00	     128890.31	     93.855552	     8764.4414
        552.00	     132609.65	     794.93481	     8764.9567
        553.00	     137907.55	     599.55521	     8765.2611
        554.00	     142351.32	     63.018848	     8765.6745
        555.00	     144173.39	     214.55459	     8766.1872
        556.00	     145279.28	     59.075949	     8766.4917
        557.00	     144786.32	     92.010398	     8766.9047
        558.00	     144173.57	     494.10432	     8767.4174
        559.00	     141458.90	     661.61980	     8767.7219
        560.00	     135141.35	     110.58685	     8768.1352
        561.00	     132128.35	     1077.4803	     8768.6478
        562.00	     125726.95	     1147.6539	     8768.9523
        563.00	     115073.11	     86.485694	     8769.3653
        564.00	     110252.39	     1443.0894	     8769.8779
        565.00	     100868.30	     1584.7997	     8770.1824
        566.00	     86306.564	     57.681211	     8770.5958
        567.00	     79488.082	     1922.5782	     8771.1085
        568.00	     67008.180	     1992.6934	     8771.4127
        569.00	     58814.511	     1996.3389	     8771.8259
        570.00	     38042.457	     76.740313	     8772.1306
        571.00	     31442.302	     1779.8107	     8772.6462
        572.00	     21570.220	     1378.3249	     8772.9508
        573.00	     13730.931	     1085.7942	     8773.2554
        574.00	     6040.0492	     15.213589	     8773.6683
        575.00	     4127.6509	     509.56259	     8774.1873
        576.00	     1913.1379	     242.41809	     8774.4920
        577.00	     1020.9470	     59.198334	     8774.7960
        578.00	     785.57048	     10.762445	     8775.2095
        579.00	     769.23064	     11.826797	     8775.7284
        580.00	     784.16536	     9.7644409	     8776.0332
        581.00	     813.77842	     11.375351	     8776.5518
        582.00	     853.87503	     8.4073683	     8777.0644
        583.00	     856.10774	     12.498438	     8777.5767
        584.00	     904.42768	     6.2674922	     8777.8816
        585.00	     945.45518	     13.965351	     8778.2945
        586.00	     989.24958	     14.299432	     8778.8071
        587.00	     1018.9800	     8.9131990	     8779.1118
        588.00	     1083.9844	     7.3685848	     8779.5249
        589.00	     1104.5277	     7.1783888	     8780.0377
        590.00	     1150.9093	     11.303460	     8780.5502
        591.00	     1173.0093	     8.7737162	     8780.8550
        592.00	     1213.2667	     12.603089	     8781.3704
        593.00	     1230.8431	     11.027290	     8781.6749
        594.00	     1233.8248	     14.724457	     8782.0880
        595.00	     1292.5391	     17.684098	     8782.6005
        596.00	     1290.1004	     12.874919	     8782.9050
        597.00	     1295.5149	     12.141915	     8783.3183
        598.00	     1276.9674	     14.010168	     8783.8340
        599.00	     1305.7523	     12.212112	     8784.1385
        600.00	     1294.9874	     6.0679347	     8784.5517
        601.00	     1275.1821	     12.808404	     8785.0645
        602.00	     1260.0147	     10.077261	     8785.3687
        603.00	     1237.9477	     10.422589	     8785.7821
        604.00	     1203.2954	     13.923560	     8786.2945
        605.00	     1215.2427	     10.621298	     8786.5991
        606.00	     1167.6125	     11.197478	     8786.9036
        607.00	     1094.4495	     15.324450	     8787.3169
        608.00	     1074.1071	     11.779264	     8787.8358
        609.00	     1082.1943	     15.701900	     8788.1401
        610.00	     1021.5123	     12.722167	     8788.4447
        611.00	     985.24894	     8.9959838	     8788.8579
        612.00	     942.76229	     12.809870	     8789.3769
        613.00	     895.53837	     16.099067	     8789.6811
        614.00	     877.29045	     12.364381	     8789.9857
        615.00	     810.42130	     11.517801	     8790.3989
        616.00	     808.88037	     11.372382	     8790.9178
        617.00	     780.89592	     16.682307	     8791.2221
        618.00	     721.64566	     11.228335	     8791.5269
        619.00	     721.25453	     9.3895906	     8792.0488
        620.00	     672.88098	     8.4022688	     8792.3531
        621.00	     670.92050	     9.0249128	     8792.8718
        622.00	     604.88268	     7.7973748	     8793.1765
        623.00	     578.48043	     14.164659	     8793.5897
        624.00	     577.71838	     10.091339	     8794.1021
        625.00	     553.26781	     10.573508	     8794.4067
        626.00	     558.61237	     10.568412	     8794.9225
        627.00	     529.93378	     10.983056	     8795.2269
        628.00	     516.13875	     7.4315035	     8795.6402
        629.00	     502.10612	     7.9917015	     8796.1526
        630.00	     484.81517	     9.7140354	     8796.4573
        631.00	     481.42855	     13.060779	     8796.8705
        632.00	     468.28675	     10.007148	     8797.3830
        633.00	     453.63837	     12.093469	     8797.6878
        634.00	     458.72322	     7.1027532	     8797.9919
        635.00	     463.01865	     9.4043490	     8798.4052
        636.00	     449.71397	     11.070211	     8798.9241
        637.00	     438.19935	     7.7256829	     8799.2289
        638.00	     435.05493	     14.124264	     8799.7444
        639.00	     443.75784	     12.640660	     8800.0490
        640.00	     443.76010	     17.770637	     8800.5677
        641.00	     486.72866	     16.207010	     8800.8719
        642.00	     440.71106	     11.136898	     8801.2853
        643.00	     458.63092	     7.8836672	     8801.8009
        644.00	     478.62714	     6.9024978	     8802.1056
        645.00	     474.36097	     12.980282	     8802.5187
        646.00	     501.31713	     8.4603038	     8803.0312
        647.00	     501.73082	     10.446036	     8803.3357
        648.00	     487.31624	     10.022414	     8803.7488
        649.00	     516.65999	     11.760802	     8804.2616
        650.00	     511.87600	     11.333607	     8804.5663
        651.00	     502.13066	     15.753119	     8804.9794
        652.00	     518.48043	     11.505983	     8805.4951
        653.00	     521.20065	     7.9873222	     8805.7997
        654.00	     521.19172	     14.446993	     8806.2128
        655.00	     529.62011	     13.201247	     8806.7256
        656.00	     536.58079	     12.118659	     8807.2380
        657.00	     527.31726	     10.850379	     8807.7505
        658.00	     523.66903	     14.042096	     8808.0554
        659.00	     520.93372	     10.033535	     8808.4684
        660.00	     532.08369	     12.590507	     8808.9810
        661.00	     548.44896	     10.449904	     8809.2857
        662.00	     548.79488	     11.842726	     8809.8010
        663.00	     515.42132	     8.3243317	     8810.1055
        664.00	     560.51527	     20.760944	     8810.4101
        665.00	     534.75293	     14.130410	     8810.8234
        666.00	     550.71887	     14.683421	     8811.3421
        667.00	     552.08122	     10.157128	     8811.6465
        668.00	     573.47774	     10.310809	     8812.0599
        669.00	     527.86925	     20.167913	     8812.5725
        670.00	     557.95149	     13.440281	     8812.8773
        671.00	     560.84100	     14.262666	     8813.3929
        672.00	     566.06384	     16.106503	     8813.6970
        673.00	     535.48004	     19.665289	     8814.0015
        674.00	     542.60629	     19.356715	     8814.4148
        675.00	     550.69064	     12.173756	     8814.9336
        676.00	     553.07492	     13.442785	     8815.2383
        677.00	     550.74009	     17.664912	     8815.5426
        678.00	     493.03782	     8.9334609	     8815.9559
        679.00	     536.54753	     21.686644	     8816.4749
        680.00	     529.42077	     22.791490	     8816.9874
        681.00	     561.03756	     14.838386	     8817.2923
        682.00	     527.97629	     23.036966	     8817.8074
        683.00	     507.97915	     13.981078	     8818.1124
        684.00	     536.58662	     16.167503	     8818.6279
        685.00	     526.27695	     16.310410	     8818.9325
        686.00	     542.98820	     11.677166	     8819.4480
        687.00	     513.42501	     14.937779	     8819.7522
        688.00	     507.71194	     11.508573	     8820.1657
        689.00	     526.10255	     18.143353	     8820.6784
        690.00	     524.01974	     18.233708	     8820.9829
        691.00	     525.97337	     18.809556	     8821.5018
        692.00	     525.11217	     14.206254	     8821.8059
        693.00	     533.18876	     19.215356	     8822.2193
        694.00	     527.80242	     20.473221	     8822.7351
        695.00	     504.69224	     22.931372	     8823.0395
        696.00	     491.99506	     13.327846	     8823.4527
        697.00	     512.88856	     20.298124	     8823.9652
        698.00	     532.38502	     16.345154	     8824.2702
        699.00	     499.31050	     21.101512	     8824.7858
        700.00	     515.64362	     20.461476	     8825.2983
        701.00	     487.93500	     24.556208	     8825.8106
        702.00	     523.39168	     9.5714009	     8826.1152
        703.00	     515.88438	     17.892992	     8826.5285
        704.00	     535.27674	     22.651510	     8827.0411
        705.00	     479.60424	     22.632741	     8827.3459
        706.00	     499.66353	     25.733623	     8827.7589
        707.00	     505.15847	     26.047638	     8828.2716
        708.00	     546.94932	     28.597164	     8828.5758
        709.00	     491.55891	     17.610629	     8828.9892
        710.00	     455.62163	     21.943405	     8829.5020
        711.00	     479.59377	     18.378613	     8829.8062
        712.00	     488.00073	     19.346535	     8830.2195
        713.00	     511.48635	     26.886669	     8830.7320
        714.00	     489.17206	     22.650627	     8831.0368
        715.00	     466.93364	     23.241452	     8831.5523
        716.00	     424.98045	     20.462731	     8831.8567
        717.00	     444.66705	     27.446150	     8832.1612
        718.00	     468.81839	     20.879017	     8832.5745
        719.00	     464.99209	     17.204187	     8833.0933
        720.00	     429.18003	     24.574461	     8833.3976
        721.00	     351.98018	     24.097959	     8833.7021
        722.00	     439.91120	     19.209255	     8834.1154
        723.00	     396.67400	     27.427977	     8834.6345
        724.00	     470.99959	     23.238495	     8834.9387
        725.00	     423.53765	     30.224665	     8835.2430
        726.00	     427.39495	     25.212471	     8835.6565
        727.00	     377.84363	     27.456114	     8836.1754
        728.00	     378.31506	     26.565496	     8836.4797
        729.00	     379.18771	     29.996772	     8836.7843
        730.00	     352.97242	     23.532855	     8837.1976
        731.00	     373.22912	     21.690300	     8837.7164
        732.00	     408.27162	     34.633639	     8838.0207
        733.00	     329.26790	     33.739648	     8838.3254
        734.00	     362.19382	     20.781787	     8838.7384
        735.00	     338.38109	     20.202396	     8839.2575
        736.00	     328.95712	     32.850211	     8839.7734
        737.00	     396.09403	     25.466996	     8840.2857
        738.00	     334.02571	     24.371594	     8840.5902
        739.00	     355.70500	     22.780739	     8840.8945
        740.00	     301.74793	     24.781231	     8841.3080
        741.00	     312.85393	     38.495126	     8841.8265
        742.00	     333.36585	     35.184736	     8842.1312
        743.00	     258.28040	     36.387682	     8842.5444
        744.00	     298.80752	     21.411334	     8843.0569
        745.00	     283.89381	     29.356535	     8843.3615
        746.00	     294.93695	     27.510563	     8843.7747
        747.00	     313.00911	     27.569784	     8844.2872
        748.00	     292.33294	     37.564891	     8844.5919
        749.00	     332.79704	     34.522067	     8844.8963
        750.00	     226.91984	     38.889531	     8845.3093
        751.00	     290.23617	     32.852420	     8845.8284
        752.00	     283.82543	     28.126845	     8846.1327
        753.00	     258.73016	     36.181130	     8846.4374
        754.00	     275.24104	     37.936592	     8846.8505
        755.00	     233.24481	     21.927969	     8847.3691
        756.00	     271.49578	     30.106996	     8847.6737
        757.00	     266.29156	     32.857764	     8847.9781
        758.00	     256.74816	     44.714783	     8848.3915
        759.00	     217.93366	     23.115262	     8848.9103
        760.00	     206.64047	     16.370220	     8849.2179
        761.00	     241.00933	     45.304854	     8849.7337
        762.00	     257.85624	     44.769742	     8850.0383
        763.00	     249.02135	     25.182986	     8850.5539
        764.00	     231.41361	     38.758650	     8850.8585
        765.00	     165.02789	     34.718977	     8851.2714
        766.00	     227.86281	     34.566379	     8851.7840
        767.00	     249.01328	     36.504553	     8852.0890
        768.00	     267.39370	     46.626919	     8852.6045
        769.00	     229.33321	     45.657686	     8852.9092
        770.00	     206.76573	     49.790702	     8853.4275
        771.00	     199.26700	     37.049984	     8853.7323
        772.00	     181.65775	     39.344918	     8854.0367
        773.00	     223.21694	     35.218987	     8854.4499
        774.00	     182.41929	     47.230032	     8854.9686
        775.00	     221.50712	     32.113386	     8855.2731
        776.00	     182.98887	     42.625026	     8855.6864
        777.00	     150.71236	     29.421106	     8856.1990
        778.00	     162.41790	     36.806766	     8856.5039
        779.00	     279.79954	     40.047625	     8857.0191
        780.00	     190.78848	     43.813220	     8857.3235
        781.00	     232.13972	     40.282608	     8857.7368
        782.00	     223.51821	     34.745863	     8858.2495
        783.00	     204.31641	     42.894753	     8858.5539
        784.00	     73.709253	     39.996657	     8858.9672
        785.00	     219.32073	     36.527193	     8859.4798
        786.00	     157.47678	     23.581475	     8859.7842
        787.00	     177.94245	     35.268418	     8860.1976
        788.00	     148.99445	     60.659869	     8860.7100
        789.00	     231.14519	     57.428483	     8861.0150
        790.00	     174.76877	     41.446894	     8861.5302
        791.00	     192.16043	     58.299390	     8861.8347
        792.00	     205.63582	     28.759256	     8862.2481
        793.00	     203.37623	     64.970594	     8862.7606
        794.00	     188.00000	     64.235677	     8863.0651
        795.00	     250.19870	     60.966825	     8863.4782
        796.00	     230.91323	     43.051619	     8863.9940
        797.00	     198.37360	     34.026383	     8864.2990
        798.00	     117.73331	     45.160421	     8864.8144
        799.00	     268.78862	     40.423238	     8865.1188
        800.00	     243.48119	     40.216320	     8865.4231
