Title=200220_em_EtOH_2,0uM_NR
Comment=
Signature=ISS_Experiment_Ver_1_0
Timestamp=Thu Feb 20 16:16:46 2020
Product=Vinci2
SoftwareVersion=BETA.2.4
BuildNumber=234
RealTimeStart=7079.269037

AcquisitionType=Photon Counting
AcquisitionFormat=L
AcquisitionSide=Right
Detector Gains=(0.0, 0.0)

Measurable=Intensity
MaxIterations=10

RightEmissionWavelengthBandwidth=8.0
ExcitationWavelengthBandwidth=8.0
Visualization=Y:Intensity,X:EmissionWavelength,PlotType:2D


EmissionWavelength=type:numeric,unit:nm,from:400.0,to:800.0,step:1.0
ExcitationWavelength=type:numeric,unit:nm,fixed:547.0

Space=EmissionWavelength
Columns=EmissionWavelength,Intensity,IntensityStdError,RealTime
[Data]
        400.00	     160.65847	     2.0992013	     7082.0346
        401.00	     169.45627	     1.4853445	     7082.6092
        402.00	     166.69349	     2.9369914	     7082.9138
        403.00	     156.52898	     2.3072262	     7083.3270
        404.00	     162.45636	     3.3858374	     7083.8397
        405.00	     155.42943	     3.1931358	     7084.1442
        406.00	     158.06182	     2.2780080	     7084.4484
        407.00	     156.16395	     3.2725331	     7084.8618
        408.00	     156.98577	     2.4207818	     7085.3838
        409.00	     154.05341	     3.1434772	     7085.6882
        410.00	     149.86470	     3.2319012	     7086.1015
        411.00	     154.53395	     2.4666724	     7086.6139
        412.00	     154.50968	     3.3171145	     7086.9186
        413.00	     152.40585	     1.9295214	     7087.3316
        414.00	     155.30945	     3.9954779	     7087.8446
        415.00	     151.70448	     2.7012435	     7088.3570
        416.00	     153.34707	     2.3406381	     7088.6616
        417.00	     150.51146	     3.4789490	     7089.0748
        418.00	     152.81439	     2.5187544	     7089.5875
        419.00	     154.95578	     3.7058106	     7089.8921
        420.00	     152.85905	     3.9384691	     7090.4077
        421.00	     153.02495	     2.5968310	     7090.7121
        422.00	     149.88406	     2.1088580	     7091.1253
        423.00	     150.07378	     3.2431999	     7091.6412
        424.00	     154.05342	     2.2542677	     7092.1538
        425.00	     149.04855	     3.5373416	     7092.4580
        426.00	     148.23642	     1.9720984	     7092.7623
        427.00	     153.58296	     2.8472178	     7093.1758
        428.00	     146.99505	     3.0430597	     7093.6947
        429.00	     149.53257	     3.7319233	     7093.9992
        430.00	     152.87892	     2.6809900	     7094.3036
        431.00	     152.51150	     4.0088002	     7094.7167
        432.00	     153.47757	     4.0463557	     7095.2358
        433.00	     149.90239	     3.2410399	     7095.5401
        434.00	     152.36363	     2.7838149	     7095.9533
        435.00	     150.17663	     2.5409028	     7096.4691
        436.00	     151.66788	     2.8402284	     7096.7736
        437.00	     147.42052	     2.5799907	     7097.0779
        438.00	     160.92734	     2.7357280	     7097.4910
        439.00	     152.74286	     2.6186332	     7097.7957
        440.00	     155.56768	     2.0790362	     7098.3175
        441.00	     155.46288	     2.6011641	     7098.6220
        442.00	     155.40169	     1.4184443	     7099.0354
        443.00	     154.83188	     2.3552627	     7099.5511
        444.00	     158.68948	     3.2810750	     7099.8557
        445.00	     159.58953	     3.9016474	     7100.1599
        446.00	     156.75739	     2.9293535	     7100.4802
        447.00	     159.05013	     1.4327509	     7100.9927
        448.00	     159.53890	     2.1473623	     7101.2976
        449.00	     161.37517	     1.4996275	     7101.8161
        450.00	     158.58075	     4.1200162	     7102.1208
        451.00	     161.62933	     3.0324034	     7102.6359
        452.00	     164.80680	     4.0354568	     7102.9408
        453.00	     168.97134	     2.3412235	     7103.3539
        454.00	     168.41936	     1.1577002	     7103.8666
        455.00	     170.61358	     3.1823077	     7104.1710
        456.00	     168.75443	     2.1847285	     7104.5840
        457.00	     168.75537	     2.9004005	     7104.8886
        458.00	     167.86512	     3.1813447	     7105.4044
        459.00	     171.81605	     2.9698592	     7105.7088
        460.00	     176.02886	     3.2525329	     7106.1221
        461.00	     176.59670	     2.9262403	     7106.6345
        462.00	     178.97630	     3.5683634	     7106.9393
        463.00	     173.78875	     3.0868557	     7107.2434
        464.00	     179.63677	     3.0561312	     7107.6568
        465.00	     181.63214	     3.0291652	     7108.1756
        466.00	     182.69426	     3.1491743	     7108.4802
        467.00	     184.56225	     3.3892637	     7108.7845
        468.00	     187.45517	     3.9942759	     7109.1977
        469.00	     187.89566	     2.2172536	     7109.5023
        470.00	     189.59851	     2.4225923	     7110.0244
        471.00	     185.67951	     2.7229137	     7110.3287
        472.00	     194.20363	     3.0223306	     7110.6333
        473.00	     190.73140	     4.0679452	     7111.0464
        474.00	     182.92113	     4.4171771	     7111.5651
        475.00	     188.25055	     2.6018598	     7111.8697
        476.00	     199.62507	     4.2949207	     7112.1743
        477.00	     196.00780	     2.6375531	     7112.5875
        478.00	     197.91519	     3.8999850	     7113.1062
        479.00	     202.24766	     5.5656850	     7113.4108
        480.00	     204.76434	     3.6729119	     7113.7155
        481.00	     205.83271	     4.9726411	     7114.2371
        482.00	     204.77741	     2.9780823	     7114.5420
        483.00	     204.82422	     3.7734975	     7115.0572
        484.00	     200.55113	     3.4439416	     7115.3624
        485.00	     210.13926	     3.8278330	     7115.8778
        486.00	     208.81948	     2.3650741	     7116.3904
        487.00	     219.52337	     2.3105260	     7116.6949
        488.00	     209.38785	     3.1305685	     7117.1078
        489.00	     208.13251	     4.1850857	     7117.6204
        490.00	     220.62262	     2.7187391	     7117.9249
        491.00	     218.88424	     4.7152741	     7118.3382
        492.00	     221.72705	     6.0075680	     7118.8540
        493.00	     222.85142	     4.1020479	     7119.1583
        494.00	     230.27205	     3.0657037	     7119.5717
        495.00	     229.26771	     4.3450965	     7120.0842
        496.00	     231.10463	     4.5430251	     7120.3891
        497.00	     229.20008	     2.4134942	     7120.9077
        498.00	     250.29594	     3.1186885	     7121.2122
        499.00	     248.19523	     5.5945923	     7121.6253
        500.00	     264.49525	     5.3718152	     7122.1411
        501.00	     278.87922	     2.7855978	     7122.4454
        502.00	     283.64288	     5.3103906	     7122.8587
        503.00	     298.49125	     4.2163093	     7123.3711
        504.00	     303.67118	     4.7857871	     7123.6759
        505.00	     320.40610	     5.0794373	     7124.0889
        506.00	     340.99783	     5.2738627	     7124.6016
        507.00	     340.02380	     5.4625202	     7124.9066
        508.00	     349.42979	     6.8226568	     7125.4216
        509.00	     353.10692	     8.6650537	     7125.7264
        510.00	     359.23207	     6.2891388	     7126.1395
        511.00	     349.58426	     5.3600757	     7126.6522
        512.00	     379.37139	     5.3531135	     7126.9568
        513.00	     368.70888	     4.1370495	     7127.3700
        514.00	     376.96140	     5.0190362	     7127.8826
        515.00	     380.16253	     5.8846711	     7128.1874
        516.00	     386.32614	     6.4345760	     7128.6002
        517.00	     393.13605	     5.6694242	     7129.1158
        518.00	     393.78065	     8.8597531	     7129.4207
        519.00	     399.84271	     7.0053650	     7129.9363
        520.00	     423.84067	     5.1766918	     7130.2410
        521.00	     412.35061	     4.5260397	     7130.7564
        522.00	     425.58473	     4.7347830	     7131.0606
        523.00	     435.02822	     6.3592612	     7131.4740
        524.00	     434.72134	     7.6714655	     7131.7783
        525.00	     476.77901	     8.6217793	     7132.0831
        526.00	     520.99031	     13.346252	     7132.6018
        527.00	     616.07518	     22.784236	     7132.9061
        528.00	     925.30493	     7.9637490	     7133.3195
        529.00	     1201.8508	     61.669858	     7133.8319
        530.00	     1846.8934	     12.397712	     7134.1370
        531.00	     2509.1879	     19.397264	     7134.6525
        532.00	     2913.9677	     104.91927	     7135.1651
        533.00	     3628.8380	     106.48151	     7135.4695
        534.00	     4698.2925	     23.765091	     7135.8825
        535.00	     5196.4868	     121.62433	     7136.3952
        536.00	     6075.5347	     124.48839	     7136.6996
        537.00	     7240.8343	     16.437008	     7137.0044
        538.00	     7806.6845	     142.65631	     7137.5260
        539.00	     8716.0732	     119.87377	     7137.8307
        540.00	     9917.0580	     24.648174	     7138.2439
        541.00	     10554.688	     147.89281	     7138.7565
        542.00	     11668.719	     21.536443	     7139.0613
        543.00	     12182.728	     110.85703	     7139.5769
        544.00	     13007.921	     32.635355	     7139.8816
        545.00	     13195.689	     67.034445	     7140.4000
        546.00	     13502.589	     23.662330	     7140.7050
        547.00	     13481.050	     34.133994	     7141.2201
        548.00	     13403.200	     28.231045	     7141.5245
        549.00	     13227.912	     30.812211	     7141.9379
        550.00	     13123.556	     73.859326	     7142.4507
        551.00	     12696.289	     24.636869	     7142.7552
        552.00	     12635.233	     55.095392	     7143.2706
        553.00	     12414.666	     51.233660	     7143.5750
        554.00	     12119.422	     16.945360	     7143.8799
        555.00	     12233.856	     40.380609	     7144.4017
        556.00	     12180.359	     25.958963	     7144.7062
        557.00	     12324.232	     41.348583	     7145.1193
        558.00	     12600.497	     46.562298	     7145.6318
        559.00	     12994.744	     73.940451	     7145.9365
        560.00	     13792.944	     26.394397	     7146.3497
        561.00	     14471.016	     129.32712	     7146.8625
        562.00	     15681.612	     195.69594	     7147.1669
        563.00	     17179.292	     225.63013	     7147.4710
        564.00	     19699.669	     29.035319	     7147.8845
        565.00	     20890.874	     315.82749	     7148.4034
        566.00	     23315.226	     339.16750	     7148.7079
        567.00	     25994.038	     360.72566	     7149.0122
        568.00	     29793.898	     28.666366	     7149.4254
        569.00	     31994.456	     486.33112	     7149.9444
        570.00	     36624.652	     43.494312	     7150.2491
        571.00	     40725.642	     49.839087	     7150.7678
        572.00	     43447.545	     659.09690	     7151.2800
        573.00	     49622.151	     81.595736	     7151.5852
        574.00	     54485.196	     82.912634	     7152.1005
        575.00	     58114.919	     791.18114	     7152.6130
        576.00	     65561.094	     83.872264	     7152.9178
        577.00	     69428.776	     829.02099	     7153.4362
        578.00	     75756.457	     882.88596	     7153.7410
        579.00	     84579.489	     86.121481	     7154.1540
        580.00	     89313.644	     1046.9963	     7154.6668
        581.00	     96840.149	     1084.8979	     7154.9713
        582.00	     104470.80	     1015.6093	     7155.2755
        583.00	     114974.13	     72.017539	     7155.6888
        584.00	     120259.16	     1188.6848	     7156.2079
        585.00	     128891.38	     1108.7487	     7156.5122
        586.00	     137221.24	     1089.1332	     7156.8168
        587.00	     148358.79	     137.09578	     7157.2298
        588.00	     157050.27	     49.018606	     7157.7517
        589.00	     162698.88	     1115.7507	     7158.2614
        590.00	     171625.67	     1086.1540	     7158.5660
        591.00	     182220.30	     120.24383	     7158.8705
        592.00	     190929.97	     111.16237	     7159.3937
        593.00	     198622.72	     117.59288	     7159.9052
        594.00	     203932.29	     896.75167	     7160.4174
        595.00	     213651.06	     99.005604	     7160.7224
        596.00	     219128.69	     859.34760	     7161.2375
        597.00	     226233.74	     755.10888	     7161.5424
        598.00	     233092.70	     730.85833	     7161.8465
        599.00	     241129.19	     111.57204	     7162.2599
        600.00	     245459.03	     700.93940	     7162.7787
        601.00	     251140.93	     615.59039	     7163.0832
        602.00	     257213.20	     499.64811	     7163.3876
        603.00	     263465.64	     76.866457	     7163.8009
        604.00	     267094.96	     360.83287	     7164.3197
        605.00	     272585.24	     411.60868	     7164.6244
        606.00	     277451.88	     307.99999	     7164.9284
        607.00	     282636.73	     69.920013	     7165.3419
        608.00	     286260.73	     293.45722	     7165.8608
        609.00	     290903.45	     274.05628	     7166.1653
        610.00	     295462.41	     254.27914	     7166.4696
        611.00	     300099.82	     89.135160	     7166.8827
        612.00	     303804.61	     221.42239	     7167.4018
        613.00	     308278.01	     171.89479	     7167.7063
        614.00	     311957.88	     185.12334	     7168.0106
        615.00	     316607.07	     77.746338	     7168.4239
        616.00	     320342.12	     125.84238	     7168.9426
        617.00	     324732.12	     96.356151	     7169.2474
        618.00	     329045.40	     140.60936	     7169.7661
        619.00	     333346.65	     67.993702	     7170.0707
        620.00	     337718.20	     141.16814	     7170.5864
        621.00	     341987.32	     109.07606	     7170.8906
        622.00	     346058.55	     117.20550	     7171.1951
        623.00	     350749.37	     85.842332	     7171.6085
        624.00	     354938.08	     127.95756	     7172.1274
        625.00	     359127.16	     75.548271	     7172.4316
        626.00	     363659.59	     65.139607	     7172.8450
        627.00	     368084.04	     112.96896	     7173.3574
        628.00	     371674.21	     94.463664	     7173.6621
        629.00	     376864.18	     101.22964	     7174.0752
        630.00	     381403.87	     73.998268	     7174.5912
        631.00	     385834.83	     51.134976	     7175.1037
        632.00	     390478.58	     77.180352	     7175.4081
        633.00	     395115.16	     78.764992	     7175.8214
        634.00	     399863.65	     107.45976	     7176.3371
        635.00	     403461.94	     123.56040	     7176.6418
        636.00	     408615.28	     140.00086	     7177.1570
        637.00	     413424.44	     101.30318	     7177.4623
        638.00	     418122.20	     136.66156	     7177.9772
        639.00	     422849.45	     156.58311	     7178.2818
        640.00	     426907.87	     89.122685	     7178.6952
        641.00	     432433.11	     147.93466	     7179.2076
        642.00	     436654.62	     226.66555	     7179.5123
        643.00	     440527.13	     83.608573	     7179.9255
        644.00	     445287.52	     87.170597	     7180.4383
        645.00	     449743.76	     134.68529	     7180.9509
        646.00	     455077.98	     199.80455	     7181.4632
        647.00	     459682.87	     190.92976	     7181.7680
        648.00	     462765.94	     126.15594	     7182.1810
        649.00	     468386.94	     230.11544	     7182.6935
        650.00	     472847.52	     335.76102	     7182.9984
        651.00	     477810.87	     315.97798	     7183.3025
        652.00	     481522.72	     96.632653	     7183.7159
        653.00	     487246.56	     322.77313	     7184.2347
        654.00	     491115.08	     370.14776	     7184.5392
        655.00	     494843.26	     424.59214	     7184.8437
        656.00	     498400.00	     130.23873	     7185.2570
        657.00	     503277.75	     438.41831	     7185.7755
        658.00	     506121.44	     142.91415	     7186.0806
        659.00	     510456.96	     586.18706	     7186.5991
        660.00	     512696.22	     109.18087	     7186.9036
        661.00	     516600.24	     646.09584	     7187.4190
        662.00	     518822.05	     644.43715	     7187.7237
        663.00	     519973.73	     215.46175	     7188.1367
        664.00	     525290.20	     963.16929	     7188.6496
        665.00	     524076.32	     173.35671	     7188.9544
        666.00	     529016.92	     857.73782	     7189.4698
        667.00	     530023.62	     899.54926	     7189.7745
        668.00	     530591.47	     1095.5083	     7190.0786
        669.00	     529275.99	     224.82896	     7190.4919
        670.00	     532518.76	     1152.9479	     7191.0109
        671.00	     531523.45	     1154.3250	     7191.3150
        672.00	     531200.48	     1340.8804	     7191.6198
        673.00	     528340.95	     345.86496	     7192.0330
        674.00	     530701.42	     1385.1250	     7192.5516
        675.00	     528787.89	     1530.3562	     7192.8562
        676.00	     526141.93	     1492.6822	     7193.1605
        677.00	     521115.90	     326.16603	     7193.5739
        678.00	     522029.14	     1700.1757	     7194.0927
        679.00	     519392.76	     1670.7693	     7194.3973
        680.00	     515040.82	     1584.2788	     7194.7015
        681.00	     508088.10	     311.93310	     7195.1149
        682.00	     508726.55	     1762.6400	     7195.6336
        683.00	     500434.77	     450.73285	     7195.9385
        684.00	     500156.16	     1994.1185	     7196.4571
        685.00	     491823.87	     224.38183	     7196.7621
        686.00	     490887.42	     1827.6257	     7197.2774
        687.00	     485783.79	     2020.6612	     7197.5818
        688.00	     481593.67	     1905.2569	     7197.8862
        689.00	     471582.04	     478.79968	     7198.2993
        690.00	     470992.25	     2012.8665	     7198.8181
        691.00	     464552.91	     1995.1219	     7199.1228
        692.00	     454899.24	     396.19887	     7199.5359
        693.00	     454498.32	     1933.7637	     7200.0485
        694.00	     448273.37	     2064.1762	     7200.3530
        695.00	     438733.65	     430.06917	     7200.7663
        696.00	     436706.61	     2258.1654	     7201.2788
        697.00	     430470.82	     1949.3283	     7201.5833
        698.00	     419526.17	     336.69982	     7201.9966
        699.00	     418601.05	     2193.5983	     7202.5093
        700.00	     407664.23	     430.08661	     7202.8138
        701.00	     405473.74	     1946.1759	     7203.3327
        702.00	     397639.76	     1871.7252	     7203.6369
        703.00	     386273.84	     429.80461	     7204.0503
        704.00	     386470.83	     1839.0950	     7204.5629
        705.00	     378957.27	     1683.3379	     7204.8676
        706.00	     367727.04	     351.51790	     7205.2806
        707.00	     366109.65	     1879.4489	     7205.7930
        708.00	     355875.98	     459.69141	     7206.0978
        709.00	     353075.72	     1996.7578	     7206.6133
        710.00	     346331.04	     1865.8517	     7206.9180
        711.00	     336069.72	     581.72072	     7207.3311
        712.00	     333159.83	     1600.1851	     7207.8435
        713.00	     326097.90	     1808.5470	     7208.1483
        714.00	     316174.87	     387.09526	     7208.4529
        715.00	     309114.30	     332.61099	     7208.9748
        716.00	     307771.45	     1559.3787	     7209.4873
        717.00	     302098.68	     1618.2301	     7209.7917
        718.00	     291454.25	     389.70907	     7210.2049
        719.00	     286056.70	     550.90064	     7210.7176
        720.00	     283217.70	     1729.7035	     7211.2303
        721.00	     277448.04	     1748.2403	     7211.5345
        722.00	     270511.34	     1754.4026	     7211.8389
        723.00	     261717.30	     381.13198	     7212.2524
        724.00	     255849.76	     444.70163	     7212.7714
        725.00	     253631.64	     1690.3003	     7213.2870
        726.00	     243688.08	     439.43276	     7213.5916
        727.00	     241414.47	     1599.5937	     7214.1072
        728.00	     236488.99	     1329.8790	     7214.4116
        729.00	     229785.51	     1620.5196	     7214.7162
        730.00	     221801.04	     295.57876	     7215.1293
        731.00	     219998.94	     1508.0565	     7215.6483
        732.00	     214574.67	     1210.7354	     7215.9524
        733.00	     205837.66	     252.12054	     7216.3658
        734.00	     203973.07	     1219.2818	     7216.8786
        735.00	     198682.29	     1201.9327	     7217.1829
        736.00	     191144.36	     446.67011	     7217.5962
        737.00	     188490.04	     1159.8148	     7218.1085
        738.00	     184968.97	     1083.4952	     7218.4130
        739.00	     179591.79	     1205.3654	     7218.7178
        740.00	     172376.35	     394.97541	     7219.1311
        741.00	     170629.20	     1238.8227	     7219.6498
        742.00	     167493.36	     1154.7978	     7219.9540
        743.00	     160473.95	     147.85360	     7220.2589
        744.00	     158821.52	     1177.2882	     7220.7807
        745.00	     152300.35	     431.76296	     7221.0855
        746.00	     148034.09	     205.05180	     7221.6011
        747.00	     146364.98	     962.56974	     7222.1133
        748.00	     142368.09	     733.93674	     7222.4180
        749.00	     137461.94	     174.66358	     7222.8312
        750.00	     135700.06	     816.12626	     7223.3439
        751.00	     131032.29	     351.12077	     7223.6486
        752.00	     129137.50	     1022.2633	     7224.1639
        753.00	     125620.74	     932.88238	     7224.4684
        754.00	     120696.61	     473.25149	     7224.8816
        755.00	     119420.81	     792.21262	     7225.3943
        756.00	     115110.98	     269.88674	     7225.6992
        757.00	     113632.58	     717.65184	     7226.2178
        758.00	     109214.04	     310.53166	     7226.5223
        759.00	     108351.59	     755.93009	     7227.0412
        760.00	     104270.78	     286.57168	     7227.3458
        761.00	     102531.68	     677.95641	     7227.8614
        762.00	     100543.07	     702.89622	     7228.1660
        763.00	     99326.707	     683.27057	     7228.5786
        764.00	     94386.490	     240.55006	     7228.8834
        765.00	     93042.122	     592.65394	     7229.3989
        766.00	     90339.400	     503.62409	     7229.7034
        767.00	     87922.591	     293.49448	     7230.1168
        768.00	     86383.089	     624.72726	     7230.6292
        769.00	     82732.113	     232.56908	     7230.9344
        770.00	     83087.378	     733.80306	     7231.4497
        771.00	     79259.413	     235.82846	     7231.7544
        772.00	     77408.261	     505.95417	     7232.2699
        773.00	     76313.276	     574.66791	     7232.5744
        774.00	     73149.470	     188.67411	     7232.9875
        775.00	     71858.252	     395.83822	     7233.5001
        776.00	     69758.745	     198.69038	     7233.8049
        777.00	     68864.589	     414.57693	     7234.3233
        778.00	     67181.574	     471.12007	     7234.6279
        779.00	     64762.402	     364.54563	     7235.0410
        780.00	     63606.052	     503.28740	     7235.5539
        781.00	     62230.587	     486.49488	     7235.8583
        782.00	     61600.177	     485.22339	     7236.1625
        783.00	     59276.570	     276.83814	     7236.5760
        784.00	     58248.000	     417.07831	     7237.0946
        785.00	     56576.570	     424.25204	     7237.3994
        786.00	     55419.828	     382.77021	     7237.7036
        787.00	     53832.514	     263.51401	     7238.1169
        788.00	     52876.983	     450.69578	     7238.6359
        789.00	     51236.413	     129.36714	     7238.9407
        790.00	     50957.913	     306.89002	     7239.4593
        791.00	     49917.788	     472.91519	     7239.7637
        792.00	     48600.445	     266.28834	     7240.1766
        793.00	     48350.904	     113.13526	     7240.6893
        794.00	     47059.200	     260.33824	     7240.9941
        795.00	     45912.653	     305.38265	     7241.5095
        796.00	     43860.989	     265.68925	     7241.8143
        797.00	     42218.479	     302.03719	     7242.3296
        798.00	     39712.183	     264.69832	     7242.6344
        799.00	     37816.050	     183.83507	     7243.0475
        800.00	     36503.829	     333.11415	     7243.5603
