Title=200220_em_EtOH_2,0uM_RhoB
Comment=
Signature=ISS_Experiment_Ver_1_0
Timestamp=Thu Feb 20 16:06:10 2020
Product=Vinci2
SoftwareVersion=BETA.2.4
BuildNumber=234
RealTimeStart=6881.801456

AcquisitionType=Photon Counting
AcquisitionFormat=L
AcquisitionSide=Right
Detector Gains=(0.0, 0.0)

Measurable=Intensity
MaxIterations=10

RightEmissionWavelengthBandwidth=8.0
ExcitationWavelengthBandwidth=8.0
Visualization=Y:Intensity,X:EmissionWavelength,PlotType:2D


EmissionWavelength=type:numeric,unit:nm,from:400.0,to:800.0,step:1.0
ExcitationWavelength=type:numeric,unit:nm,fixed:543.0

Space=EmissionWavelength
Columns=EmissionWavelength,Intensity,IntensityStdError,RealTime
[Data]
        400.00	     349.09618	     2.8600656	     6884.6187
        401.00	     346.15132	     3.0546817	     6885.2027
        402.00	     338.08807	     4.8134671	     6885.5072
        403.00	     347.56792	     4.0246326	     6885.9205
        404.00	     349.33023	     4.8265115	     6886.4332
        405.00	     353.59682	     2.5029732	     6886.7378
        406.00	     347.03593	     2.5002588	     6887.2531
        407.00	     347.74231	     3.8910333	     6887.5578
        408.00	     348.66076	     4.6342119	     6887.8622
        409.00	     350.36446	     4.7319342	     6888.2755
        410.00	     350.48491	     3.5738881	     6888.7943
        411.00	     349.74665	     2.6192645	     6889.0986
        412.00	     344.50626	     3.3422080	     6889.4033
        413.00	     356.86877	     5.0620191	     6889.8165
        414.00	     362.35846	     3.4240304	     6890.3354
        415.00	     356.71239	     4.1983422	     6890.6400
        416.00	     351.29427	     4.8026043	     6890.9441
        417.00	     366.83895	     2.3957541	     6891.3575
        418.00	     363.34194	     5.9144004	     6891.8765
        419.00	     360.39096	     5.2141931	     6892.3922
        420.00	     367.74057	     5.1623065	     6892.6966
        421.00	     369.08315	     4.8150717	     6893.1095
        422.00	     366.38071	     5.1090881	     6893.6226
        423.00	     367.25373	     3.4456788	     6894.1348
        424.00	     377.31456	     3.4947004	     6894.4398
        425.00	     377.08542	     3.4619688	     6894.9553
        426.00	     389.36673	     5.1430093	     6895.2601
        427.00	     391.12026	     3.9291333	     6895.7786
        428.00	     382.99327	     3.6625900	     6896.0861
        429.00	     397.13460	     3.6886556	     6896.5986
        430.00	     401.79085	     3.9181116	     6896.9030
        431.00	     407.30151	     2.6967723	     6897.3164
        432.00	     412.16248	     3.5739004	     6897.8290
        433.00	     413.13752	     6.0977067	     6898.1338
        434.00	     423.85786	     4.0454996	     6898.5468
        435.00	     427.30842	     2.8952486	     6899.0591
        436.00	     431.25851	     4.4344057	     6899.3639
        437.00	     439.88806	     4.8287876	     6899.7772
        438.00	     448.71235	     3.3619803	     6900.2898
        439.00	     464.65834	     4.4587348	     6900.5945
        440.00	     461.38718	     3.2475483	     6900.8984
        441.00	     482.13234	     4.0555397	     6901.3118
        442.00	     488.25844	     4.3025868	     6901.6163
        443.00	     499.32911	     5.2958110	     6902.1385
        444.00	     508.92203	     4.2106700	     6902.6541
        445.00	     526.18268	     6.3549226	     6902.9585
        446.00	     534.82518	     3.4185562	     6903.3717
        447.00	     554.34051	     5.9013688	     6903.8842
        448.00	     568.47513	     5.9947407	     6904.1886
        449.00	     575.96464	     7.1248709	     6904.4930
        450.00	     589.96406	     4.8082515	     6904.9064
        451.00	     591.75055	     6.6927474	     6905.4253
        452.00	     618.07029	     7.4529151	     6905.7303
        453.00	     631.53808	     4.8362123	     6906.2454
        454.00	     645.20312	     3.4153212	     6906.5505
        455.00	     662.40808	     5.6322782	     6907.0658
        456.00	     681.85243	     4.5715745	     6907.3706
        457.00	     685.95035	     7.3051039	     6907.8858
        458.00	     697.07911	     5.0857521	     6908.1903
        459.00	     719.88513	     7.0409259	     6908.6036
        460.00	     728.20026	     4.4761147	     6909.1162
        461.00	     734.20866	     5.4581920	     6909.4207
        462.00	     763.97114	     5.4656768	     6909.7254
        463.00	     764.43838	     4.6420134	     6910.2470
        464.00	     773.28758	     4.3293535	     6910.5519
        465.00	     806.27283	     5.8065505	     6910.9648
        466.00	     817.86844	     4.3930089	     6911.4775
        467.00	     832.04653	     8.7236514	     6911.7822
        468.00	     847.98900	     5.8264651	     6912.1952
        469.00	     865.45121	     7.2416688	     6912.7109
        470.00	     870.60370	     6.0598433	     6913.0157
        471.00	     883.35955	     5.0730276	     6913.5313
        472.00	     898.56721	     5.4993055	     6913.8354
        473.00	     916.15989	     9.6037523	     6914.2488
        474.00	     930.86786	     10.229973	     6914.7615
        475.00	     938.74619	     10.039020	     6915.0662
        476.00	     955.21206	     4.9677935	     6915.5819
        477.00	     965.86381	     7.0047334	     6916.0945
        478.00	     972.99774	     8.6213551	     6916.6100
        479.00	     994.12705	     5.9250972	     6916.9149
        480.00	     1014.8841	     6.1052478	     6917.4304
        481.00	     1047.4128	     9.6606184	     6917.9427
        482.00	     1060.3838	     8.8630564	     6918.2477
        483.00	     1061.1426	     9.2981544	     6918.7629
        484.00	     1093.0552	     11.194151	     6919.0678
        485.00	     1101.1187	     5.1052401	     6919.5831
        486.00	     1124.2333	     10.874590	     6919.8876
        487.00	     1130.2187	     6.5528890	     6920.1925
        488.00	     1162.6863	     10.830277	     6920.7143
        489.00	     1181.9266	     7.8808029	     6921.0187
        490.00	     1211.8080	     10.502177	     6921.4318
        491.00	     1234.7737	     7.7585863	     6921.9443
        492.00	     1266.4044	     7.9235280	     6922.2490
        493.00	     1301.4727	     9.0542030	     6922.6622
        494.00	     1340.3541	     9.6685933	     6923.1747
        495.00	     1381.3750	     12.516465	     6923.4794
        496.00	     1425.0913	     8.5188651	     6923.8923
        497.00	     1527.2266	     8.0774274	     6924.1968
        498.00	     1582.0806	     6.9479856	     6924.7127
        499.00	     1699.2957	     17.827141	     6925.0173
        500.00	     1824.0105	     14.885294	     6925.3218
        501.00	     2012.8277	     6.2669953	     6925.7348
        502.00	     2164.7547	     19.969583	     6926.2537
        503.00	     2370.1713	     27.151671	     6926.5583
        504.00	     2650.4314	     12.241639	     6926.8630
        505.00	     2844.6806	     39.119996	     6927.3846
        506.00	     3147.1360	     35.444708	     6927.6892
        507.00	     3605.4348	     20.346788	     6928.1022
        508.00	     3839.7218	     63.664406	     6928.6181
        509.00	     4292.8228	     69.975110	     6928.9224
        510.00	     4993.5531	     16.986117	     6929.3358
        511.00	     5357.1346	     95.464200	     6929.8481
        512.00	     6026.9715	     103.42417	     6930.1526
        513.00	     6588.1937	     134.73039	     6930.5659
        514.00	     8072.2424	     32.114680	     6930.8705
        515.00	     8845.6236	     182.55363	     6931.3863
        516.00	     10120.885	     205.21550	     6931.6910
        517.00	     12267.375	     21.153822	     6932.1037
        518.00	     13439.413	     323.67251	     6932.6166
        519.00	     15714.178	     350.27050	     6932.9211
        520.00	     19261.118	     43.581962	     6933.3343
        521.00	     21381.610	     547.48572	     6933.8469
        522.00	     25107.960	     602.42613	     6934.1512
        523.00	     31278.302	     52.574940	     6934.5645
        524.00	     36856.913	     48.969138	     6935.0774
        525.00	     40833.441	     1041.5473	     6935.5897
        526.00	     48097.102	     1095.7871	     6935.8946
        527.00	     59234.258	     69.522875	     6936.3074
        528.00	     65364.679	     1530.3911	     6936.8202
        529.00	     79440.821	     80.636619	     6937.1250
        530.00	     86610.711	     1731.8259	     6937.6404
        531.00	     98455.954	     1838.9229	     6937.9450
        532.00	     110902.17	     1737.5463	     6938.2493
        533.00	     126881.88	     59.292984	     6938.6625
        534.00	     133763.89	     1665.5019	     6939.1813
        535.00	     144178.13	     1376.4218	     6939.4861
        536.00	     153304.52	     1096.1686	     6939.7904
        537.00	     162783.56	     34.226082	     6940.2033
        538.00	     166453.03	     723.78015	     6940.7224
        539.00	     171169.95	     507.50833	     6941.0268
        540.00	     176376.13	     47.603111	     6941.3344
        541.00	     179022.77	     377.62938	     6941.8533
        542.00	     182174.46	     310.93977	     6942.1575
        543.00	     185010.80	     252.95167	     6942.4622
        544.00	     188021.38	     47.075320	     6942.8754
        545.00	     189661.34	     146.82516	     6943.3942
        546.00	     192083.60	     57.025341	     6943.6989
        547.00	     193570.43	     94.870854	     6944.2142
        548.00	     195729.42	     51.428343	     6944.5194
        549.00	     197366.48	     83.038881	     6945.0345
        550.00	     199079.56	     76.927226	     6945.3393
        551.00	     200652.93	     84.857689	     6945.6435
        552.00	     202401.98	     53.552460	     6946.0569
        553.00	     204149.17	     66.262335	     6946.5755
        554.00	     205784.22	     55.326793	     6946.8832
        555.00	     207471.72	     66.078591	     6947.3960
        556.00	     209188.07	     40.349247	     6947.7006
        557.00	     211033.50	     42.803164	     6948.1135
        558.00	     212722.27	     49.377071	     6948.6262
        559.00	     214764.02	     39.622716	     6948.9311
        560.00	     216156.32	     42.130578	     6949.4463
        561.00	     217978.85	     46.955687	     6949.7511
        562.00	     219841.94	     69.150972	     6950.2664
        563.00	     221469.86	     52.468347	     6950.5710
        564.00	     223506.11	     87.448995	     6950.9843
        565.00	     225147.76	     64.698799	     6951.5001
        566.00	     227247.92	     31.735911	     6951.8049
        567.00	     228999.71	     70.771507	     6952.3200
        568.00	     230812.70	     43.063660	     6952.6250
        569.00	     232977.48	     56.033625	     6953.1404
        570.00	     234399.11	     68.638634	     6953.4451
        571.00	     236359.99	     31.499252	     6953.8581
        572.00	     238248.18	     72.191070	     6954.3736
        573.00	     240146.40	     67.870473	     6954.6785
        574.00	     241634.62	     38.788769	     6955.0916
        575.00	     243834.00	     66.449801	     6955.6043
        576.00	     245326.67	     78.389000	     6955.9087
        577.00	     247300.15	     59.385911	     6956.3217
        578.00	     249014.82	     61.349959	     6956.6263
        579.00	     251153.83	     57.323774	     6957.1420
        580.00	     253237.75	     67.556554	     6957.4466
        581.00	     254957.58	     70.937749	     6957.8597
        582.00	     256530.40	     78.552666	     6958.3723
        583.00	     258522.57	     74.494714	     6958.6767
        584.00	     260292.70	     70.665021	     6959.0901
        585.00	     262167.95	     71.462945	     6959.6028
        586.00	     264074.61	     86.078969	     6959.9071
        587.00	     265797.90	     70.311794	     6960.2117
        588.00	     267238.94	     78.786429	     6960.6248
        589.00	     269349.55	     68.682824	     6961.1435
        590.00	     271156.82	     83.272414	     6961.4484
        591.00	     272758.78	     53.356346	     6961.7527
        592.00	     274944.25	     48.978202	     6962.1659
        593.00	     276322.73	     70.249698	     6962.6847
        594.00	     278172.53	     122.72145	     6962.9892
        595.00	     280047.24	     54.787204	     6963.2938
        596.00	     282162.66	     65.335666	     6963.7068
        597.00	     284556.58	     97.969589	     6964.2258
        598.00	     285979.61	     93.650734	     6964.5301
        599.00	     287989.14	     69.678252	     6964.8346
        600.00	     289796.78	     85.449066	     6965.2479
        601.00	     291839.86	     84.360034	     6965.7666
        602.00	     294115.11	     91.060749	     6966.0716
        603.00	     296201.42	     128.09851	     6966.5898
        604.00	     297885.32	     56.577102	     6966.8949
        605.00	     300610.99	     101.69500	     6967.4102
        606.00	     302863.99	     95.192253	     6967.7147
        607.00	     304703.33	     57.997154	     6968.1280
        608.00	     307017.07	     106.24128	     6968.6403
        609.00	     309701.18	     115.83119	     6968.9450
        610.00	     311923.04	     90.421873	     6969.3582
        611.00	     314459.76	     155.60075	     6969.8738
        612.00	     316770.21	     97.716129	     6970.1788
        613.00	     319236.15	     70.122445	     6970.5916
        614.00	     321612.93	     166.98756	     6971.1043
        615.00	     323857.85	     91.704344	     6971.4090
        616.00	     326533.00	     143.21789	     6971.9277
        617.00	     328996.46	     157.48103	     6972.2322
        618.00	     331596.22	     75.157195	     6972.6454
        619.00	     334366.89	     194.67185	     6973.1613
        620.00	     337392.40	     225.49288	     6973.4655
        621.00	     339514.25	     118.69668	     6973.8789
        622.00	     342298.52	     224.01172	     6974.3915
        623.00	     344942.74	     168.16156	     6974.6958
        624.00	     347029.68	     84.923199	     6975.1090
        625.00	     349769.84	     266.25644	     6975.6216
        626.00	     352300.33	     260.90295	     6975.9260
        627.00	     354585.53	     333.97372	     6976.2305
        628.00	     355330.17	     72.963406	     6976.6440
        629.00	     358729.09	     388.38391	     6977.1626
        630.00	     360769.42	     332.75657	     6977.4673
        631.00	     362070.80	     428.17656	     6977.7718
        632.00	     362165.26	     152.68944	     6978.1848
        633.00	     364770.24	     530.59518	     6978.7035
        634.00	     364078.38	     124.65443	     6979.0083
        635.00	     365455.33	     690.64127	     6979.5268
        636.00	     365895.77	     672.87100	     6979.8316
        637.00	     363604.48	     179.05221	     6980.2446
        638.00	     364523.83	     885.23795	     6980.7572
        639.00	     360900.05	     151.60829	     6981.0621
        640.00	     360798.79	     1031.3267	     6981.5805
        641.00	     358500.64	     1178.7414	     6981.8854
        642.00	     352416.12	     157.56819	     6982.2984
        643.00	     351673.94	     1357.5330	     6982.8138
        644.00	     347398.46	     1297.7773	     6983.1186
        645.00	     339964.30	     137.85495	     6983.5316
        646.00	     338886.84	     1471.2537	     6984.0443
        647.00	     329584.23	     132.57694	     6984.3491
        648.00	     327496.14	     1596.3932	     6984.8644
        649.00	     317538.77	     240.59566	     6985.1695
        650.00	     315509.89	     1619.5300	     6985.6848
        651.00	     309899.45	     1695.5862	     6985.9894
        652.00	     299315.04	     161.50798	     6986.4025
        653.00	     297424.31	     1724.1772	     6986.9149
        654.00	     290409.38	     1500.4167	     6987.2196
        655.00	     279807.40	     214.39068	     6987.6328
        656.00	     277542.21	     1613.2668	     6988.1456
        657.00	     270907.55	     1636.0855	     6988.4498
        658.00	     260946.75	     256.06147	     6988.8631
        659.00	     258345.32	     1658.8747	     6989.3758
        660.00	     251927.68	     1545.9508	     6989.6802
        661.00	     245468.17	     1545.5939	     6989.9844
        662.00	     236043.19	     301.47455	     6990.3979
        663.00	     233911.97	     1502.0323	     6990.9166
        664.00	     228685.01	     1379.6101	     6991.2211
        665.00	     222223.87	     1305.1731	     6991.5258
        666.00	     215000.94	     171.68475	     6991.9388
        667.00	     212574.56	     1320.6504	     6992.4578
        668.00	     207425.41	     1227.6349	     6992.7621
        669.00	     202436.04	     1148.8363	     6993.0665
        670.00	     195530.52	     173.11916	     6993.4799
        671.00	     193401.69	     1233.6864	     6993.9987
        672.00	     186892.59	     164.61474	     6994.3037
        673.00	     184796.58	     1187.6410	     6994.8218
        674.00	     180629.63	     1155.0631	     6995.1266
        675.00	     174559.49	     218.07775	     6995.5397
        676.00	     170341.70	     142.39483	     6996.0526
        677.00	     169081.98	     1055.9006	     6996.5651
        678.00	     165593.76	     988.29802	     6996.8695
        679.00	     159341.09	     207.16401	     6997.2827
        680.00	     157641.58	     1077.5079	     6997.7954
        681.00	     154378.17	     1053.8018	     6998.0997
        682.00	     150719.88	     940.36212	     6998.4043
        683.00	     145335.72	     171.18348	     6998.8173
        684.00	     141102.06	     243.23133	     6999.3365
        685.00	     140830.56	     1037.9850	     6999.8520
        686.00	     136855.02	     843.00527	     7000.1564
        687.00	     131665.47	     214.92830	     7000.5697
        688.00	     128268.10	     223.56416	     7001.0833
        689.00	     127194.30	     943.30383	     7001.5951
        690.00	     123903.90	     858.27518	     7001.8995
        691.00	     119093.18	     175.60363	     7002.3127
        692.00	     116213.39	     202.75829	     7002.8255
        693.00	     114569.18	     739.67381	     7003.3408
        694.00	     111549.50	     721.36024	     7003.6456
        695.00	     107299.13	     181.57054	     7004.0588
        696.00	     106036.95	     800.66613	     7004.5712
        697.00	     101017.89	     305.63656	     7004.8790
        698.00	     99857.918	     646.52251	     7005.3914
        699.00	     97088.732	     799.97512	     7005.6964
        700.00	     92831.031	     172.67552	     7006.1093
        701.00	     91650.580	     620.09593	     7006.6251
        702.00	     88799.973	     782.39807	     7006.9293
        703.00	     84959.363	     219.12102	     7007.3426
        704.00	     84247.949	     644.53534	     7007.8552
        705.00	     81334.640	     609.93953	     7008.1597
        706.00	     78548.161	     485.21874	     7008.4643
        707.00	     75147.481	     136.99856	     7008.8775
        708.00	     73843.057	     548.86386	     7009.3962
        709.00	     71595.832	     398.26927	     7009.7009
        710.00	     69436.175	     460.19479	     7010.0055
        711.00	     68050.514	     517.60361	     7010.4183
        712.00	     64005.482	     150.56997	     7010.7230
        713.00	     63073.448	     434.46083	     7011.2448
        714.00	     60286.877	     148.55338	     7011.5495
        715.00	     59594.634	     472.44001	     7012.0653
        716.00	     57426.979	     446.29438	     7012.3699
        717.00	     54971.145	     189.05477	     7012.7829
        718.00	     53907.146	     369.33016	     7013.2952
        719.00	     52784.808	     353.53779	     7013.5997
        720.00	     50089.389	     155.12622	     7014.0131
        721.00	     49449.230	     472.82184	     7014.5259
        722.00	     48035.607	     367.11226	     7014.8303
        723.00	     46434.111	     388.54949	     7015.1346
        724.00	     44422.735	     180.93820	     7015.5480
        725.00	     44026.033	     410.25561	     7016.0666
        726.00	     41726.623	     121.80628	     7016.3715
        727.00	     40642.896	     223.85853	     7016.8902
        728.00	     40065.595	     303.28965	     7017.4027
        729.00	     38342.041	     150.37624	     7017.7103
        730.00	     37919.106	     366.08312	     7018.2259
        731.00	     36833.482	     326.99357	     7018.5306
        732.00	     35327.411	     193.74229	     7018.9437
        733.00	     35064.255	     284.62727	     7019.4562
        734.00	     34095.719	     241.19131	     7019.7608
        735.00	     33127.917	     316.51231	     7020.0651
        736.00	     31674.226	     115.36546	     7020.4783
        737.00	     31355.558	     272.82510	     7020.9974
        738.00	     30891.208	     270.22054	     7021.3016
        739.00	     29852.488	     226.21054	     7021.6064
        740.00	     28638.940	     90.730596	     7022.0195
        741.00	     27962.928	     135.21067	     7022.5385
        742.00	     27765.321	     192.99098	     7023.0542
        743.00	     26908.246	     184.34095	     7023.3586
        744.00	     26280.237	     186.55745	     7023.7717
        745.00	     25847.476	     213.62147	     7024.2842
        746.00	     25325.570	     180.96243	     7024.5892
        747.00	     24324.660	     169.46003	     7025.0021
        748.00	     24167.651	     159.34330	     7025.5149
        749.00	     23245.504	     111.95931	     7025.8196
        750.00	     22768.289	     212.90129	     7026.3348
        751.00	     22125.082	     174.30419	     7026.6396
        752.00	     22024.854	     207.65356	     7027.1550
        753.00	     21429.584	     172.44580	     7027.4595
        754.00	     20678.729	     140.13498	     7027.8727
        755.00	     20858.447	     176.17857	     7028.3853
        756.00	     20035.851	     115.15237	     7028.6903
        757.00	     19769.702	     142.98289	     7029.2057
        758.00	     19343.351	     116.14416	     7029.5100
        759.00	     18632.211	     121.07784	     7029.9233
        760.00	     18443.653	     198.37293	     7030.4389
        761.00	     18206.533	     188.67733	     7030.7436
        762.00	     17979.244	     70.440463	     7031.1566
        763.00	     17231.106	     123.61805	     7031.6726
        764.00	     16752.565	     133.22919	     7032.1823
        765.00	     16702.622	     155.49010	     7032.6947
        766.00	     16420.098	     212.21090	     7032.9991
        767.00	     15572.860	     145.35508	     7033.4123
        768.00	     15579.103	     139.29978	     7033.9283
        769.00	     15103.320	     113.63752	     7034.2329
        770.00	     14930.394	     146.83276	     7034.7485
        771.00	     14644.839	     159.58472	     7035.0529
        772.00	     14411.299	     164.27518	     7035.3575
        773.00	     13877.528	     151.44307	     7035.7704
        774.00	     13766.354	     201.45987	     7036.2895
        775.00	     13416.619	     159.29922	     7036.5938
        776.00	     13241.617	     186.14122	     7036.8980
        777.00	     12877.686	     109.77537	     7037.3115
        778.00	     12539.353	     115.42590	     7037.8301
        779.00	     12299.288	     133.07342	     7038.1347
        780.00	     11958.198	     96.031850	     7038.5480
        781.00	     12205.549	     147.90478	     7039.0604
        782.00	     11635.925	     115.86387	     7039.3682
        783.00	     11527.824	     79.041638	     7039.8811
        784.00	     11441.887	     145.29949	     7040.1853
        785.00	     10808.423	     109.68661	     7040.5987
        786.00	     10729.418	     176.14865	     7041.1110
        787.00	     10682.605	     124.95744	     7041.4155
        788.00	     10477.748	     148.29622	     7041.8288
        789.00	     10168.847	     142.20944	     7042.3415
        790.00	     10216.594	     133.94404	     7042.6458
        791.00	     9759.3966	     137.35701	     7043.0594
        792.00	     9683.0745	     112.32396	     7043.5718
        793.00	     9892.0603	     136.88760	     7043.8761
        794.00	     9390.4000	     98.124637	     7044.1808
        795.00	     9128.6782	     152.09910	     7044.5939
        796.00	     9004.0503	     149.91488	     7045.1125
        797.00	     8410.2775	     104.31206	     7045.4175
        798.00	     8015.4312	     91.782720	     7045.9360
        799.00	     7592.7409	     129.55390	     7046.2406
        800.00	     7211.2776	     135.01650	     7046.7564
