Title=200220_em_NaOH-MeCN_2,0uM_NR
Comment=
Signature=ISS_Experiment_Ver_1_0
Timestamp=Thu Feb 20 21:18:20 2020
Product=Vinci2
SoftwareVersion=BETA.2.4
BuildNumber=234
RealTimeStart=12700.9625115

AcquisitionType=Photon Counting
AcquisitionFormat=L
AcquisitionSide=Right
Detector Gains=(0.0, 0.0)

Measurable=Intensity
MaxIterations=10

RightEmissionWavelengthBandwidth=8.0
ExcitationWavelengthBandwidth=8.0
Visualization=Y:Intensity,X:EmissionWavelength,PlotType:2D


EmissionWavelength=type:numeric,unit:nm,from:400.0,to:800.0,step:1.0
ExcitationWavelength=type:numeric,unit:nm,fixed:535.0

Space=EmissionWavelength
Columns=EmissionWavelength,Intensity,IntensityStdError,RealTime
[Data]
        400.00	     245.26410	     2.3462707	     12703.908
        401.00	     247.12948	     3.5261334	     12704.476
        402.00	     236.75108	     2.0878156	     12704.781
        403.00	     240.06138	     2.1801595	     12705.194
        404.00	     239.47422	     3.4145540	     12705.706
        405.00	     241.58917	     2.8703928	     12706.011
        406.00	     237.84280	     2.2993276	     12706.424
        407.00	     236.75444	     3.9612232	     12706.729
        408.00	     238.38075	     1.9794476	     12707.244
        409.00	     228.71233	     2.3643843	     12707.549
        410.00	     231.20947	     3.5053934	     12707.853
        411.00	     228.97947	     3.3942992	     12708.266
        412.00	     230.81216	     3.9638609	     12708.571
        413.00	     234.97131	     1.9280395	     12709.093
        414.00	     228.83409	     3.5390729	     12709.398
        415.00	     227.17031	     2.9782092	     12709.913
        416.00	     229.23556	     3.9053831	     12710.218
        417.00	     233.29390	     3.9188729	     12710.733
        418.00	     236.07646	     2.3402666	     12711.038
        419.00	     233.64426	     2.9977924	     12711.342
        420.00	     234.44949	     2.4483702	     12711.755
        421.00	     236.49520	     2.8967795	     12712.060
        422.00	     226.85093	     4.1870948	     12712.585
        423.00	     235.02121	     3.3670236	     12712.890
        424.00	     235.92812	     2.9782224	     12713.194
        425.00	     234.16627	     2.4635639	     12713.607
        426.00	     235.10727	     4.0214845	     12714.126
        427.00	     228.00232	     2.2387095	     12714.431
        428.00	     238.91064	     4.0608801	     12714.844
        429.00	     231.49062	     3.0354832	     12715.356
        430.00	     234.72390	     2.9355767	     12715.661
        431.00	     232.30992	     2.4263815	     12715.965
        432.00	     234.83319	     2.8218159	     12716.378
        433.00	     236.47108	     1.3537107	     12716.897
        434.00	     241.68189	     4.2611850	     12717.202
        435.00	     236.24389	     3.3152426	     12717.506
        436.00	     242.56350	     3.4791248	     12717.919
        437.00	     239.60330	     2.9089759	     12718.438
        438.00	     242.12589	     3.3330760	     12718.743
        439.00	     241.81668	     3.9873624	     12719.047
        440.00	     245.13621	     3.5704150	     12719.460
        441.00	     245.27017	     3.3257520	     12719.979
        442.00	     247.80070	     3.4043055	     12720.284
        443.00	     248.06556	     2.1209256	     12720.588
        444.00	     246.19208	     3.0017359	     12721.001
        445.00	     249.54269	     5.2000161	     12721.520
        446.00	     255.47675	     5.2853560	     12721.825
        447.00	     249.82532	     4.2518561	     12722.129
        448.00	     259.80040	     3.5012050	     12722.542
        449.00	     258.99844	     4.3333479	     12723.061
        450.00	     255.52082	     2.8261775	     12723.366
        451.00	     260.96243	     3.8673142	     12723.670
        452.00	     262.19613	     3.3426402	     12724.083
        453.00	     262.51638	     5.6746705	     12724.602
        454.00	     261.87094	     3.3160422	     12724.907
        455.00	     270.84485	     3.1406492	     12725.426
        456.00	     271.27490	     4.1495609	     12725.730
        457.00	     276.34052	     2.4320292	     12726.143
        458.00	     281.06668	     3.0063976	     12726.659
        459.00	     285.80404	     3.9223671	     12726.964
        460.00	     280.38751	     5.1080252	     12727.377
        461.00	     283.93246	     5.4603684	     12727.889
        462.00	     288.85280	     3.5210231	     12728.194
        463.00	     297.26810	     5.3156564	     12728.607
        464.00	     289.68770	     5.0132748	     12728.912
        465.00	     296.45077	     4.3272810	     12729.427
        466.00	     297.46162	     4.3882396	     12729.732
        467.00	     299.81026	     3.5546898	     12730.251
        468.00	     310.13089	     3.3047639	     12730.555
        469.00	     308.67379	     3.9893813	     12730.968
        470.00	     310.28262	     5.5547205	     12731.273
        471.00	     324.85454	     4.2937433	     12731.792
        472.00	     316.89136	     3.6689062	     12732.096
        473.00	     323.12445	     4.4486753	     12732.509
        474.00	     320.63449	     3.7478925	     12733.025
        475.00	     322.79754	     3.4008277	     12733.329
        476.00	     341.36641	     2.5849839	     12733.743
        477.00	     334.84909	     4.2391810	     12734.255
        478.00	     339.72176	     3.8694203	     12734.560
        479.00	     342.78317	     5.3411335	     12734.864
        480.00	     361.76315	     4.3236787	     12735.278
        481.00	     367.03955	     5.3946202	     12735.796
        482.00	     359.54406	     4.9662891	     12736.101
        483.00	     367.47165	     4.2245796	     12736.405
        484.00	     377.02642	     3.3583365	     12736.818
        485.00	     383.85722	     5.5542978	     12737.337
        486.00	     390.83498	     5.3364158	     12737.642
        487.00	     403.79482	     3.4893016	     12737.946
        488.00	     406.69802	     4.9279054	     12738.360
        489.00	     419.73182	     5.9371175	     12738.878
        490.00	     426.52451	     6.1784108	     12739.183
        491.00	     437.48417	     3.9360421	     12739.487
        492.00	     456.49315	     4.0091153	     12739.900
        493.00	     450.52453	     5.2146983	     12740.419
        494.00	     469.72417	     5.3753071	     12740.724
        495.00	     470.33074	     6.5564826	     12741.243
        496.00	     479.87208	     5.4707923	     12741.547
        497.00	     493.74976	     5.9276353	     12741.960
        498.00	     519.42063	     3.6710393	     12742.476
        499.00	     537.90999	     6.9033900	     12742.784
        500.00	     565.81003	     6.4597899	     12743.296
        501.00	     583.51283	     6.7337692	     12743.601
        502.00	     610.50788	     7.8751158	     12744.120
        503.00	     639.69519	     7.6023309	     12744.424
        504.00	     661.85348	     5.8085463	     12744.940
        505.00	     690.52141	     9.6210312	     12745.244
        506.00	     713.22525	     4.8999089	     12745.658
        507.00	     728.46295	     5.5491946	     12746.170
        508.00	     766.91785	     7.7196694	     12746.475
        509.00	     772.69385	     6.9986931	     12746.990
        510.00	     792.38159	     11.635074	     12747.295
        511.00	     816.24389	     6.3338160	     12747.708
        512.00	     838.32912	     6.0279691	     12748.224
        513.00	     858.97981	     10.450002	     12748.528
        514.00	     947.98873	     13.169646	     12748.833
        515.00	     1177.6990	     9.8774272	     12749.246
        516.00	     1383.4435	     59.693539	     12749.768
        517.00	     2042.3416	     9.5475340	     12750.073
        518.00	     2736.4355	     17.590829	     12750.591
        519.00	     3228.4217	     120.94936	     12751.101
        520.00	     4213.3721	     142.80095	     12751.405
        521.00	     5810.3359	     12.426628	     12751.710
        522.00	     6628.5358	     218.80176	     12752.232
        523.00	     8048.6294	     238.96907	     12752.536
        524.00	     9168.0096	     242.67503	     12752.949
        525.00	     11923.274	     29.432036	     12753.254
        526.00	     13059.291	     284.24009	     12753.773
        527.00	     14956.147	     285.39874	     12754.077
        528.00	     16789.357	     266.13602	     12754.381
        529.00	     19283.072	     40.027129	     12754.795
        530.00	     20317.050	     283.35755	     12755.314
        531.00	     22171.110	     259.48178	     12755.618
        532.00	     24319.029	     23.379761	     12756.031
        533.00	     25295.115	     195.06834	     12756.547
        534.00	     26294.400	     156.36155	     12756.851
        535.00	     27414.781	     28.525859	     12757.265
        536.00	     27949.943	     81.024563	     12757.777
        537.00	     28495.810	     83.800625	     12758.082
        538.00	     28884.994	     52.427696	     12758.386
        539.00	     28962.355	     41.674499	     12758.799
        540.00	     28877.534	     57.402777	     12759.318
        541.00	     28727.918	     62.549824	     12759.623
        542.00	     28472.235	     78.349687	     12759.927
        543.00	     28181.195	     54.228026	     12760.341
        544.00	     28300.798	     53.838757	     12760.859
        545.00	     28389.900	     38.465114	     12761.164
        546.00	     28805.440	     50.105027	     12761.577
        547.00	     29415.065	     143.64300	     12762.090
        548.00	     30407.402	     156.27399	     12762.394
        549.00	     32384.201	     62.774453	     12762.807
        550.00	     33752.980	     290.79388	     12763.323
        551.00	     37070.115	     69.529600	     12763.628
        552.00	     39084.002	     492.65516	     12764.144
        553.00	     42627.414	     508.99467	     12764.448
        554.00	     46784.230	     588.76071	     12764.752
        555.00	     52935.288	     57.263508	     12765.165
        556.00	     56230.813	     769.88631	     12765.684
        557.00	     64237.794	     63.718818	     12765.989
        558.00	     68390.038	     937.96453	     12766.508
        559.00	     75259.660	     956.95209	     12766.812
        560.00	     84755.181	     56.601329	     12767.225
        561.00	     92516.332	     93.241322	     12767.741
        562.00	     100517.12	     115.04612	     12768.254
        563.00	     105737.35	     1187.8353	     12768.766
        564.00	     117128.67	     81.569318	     12769.071
        565.00	     122693.37	     1203.8411	     12769.590
        566.00	     131661.90	     1164.3789	     12769.894
        567.00	     142892.65	     103.68786	     12770.307
        568.00	     148719.52	     1128.1327	     12770.823
        569.00	     157786.90	     1049.6963	     12771.128
        570.00	     168026.31	     97.897114	     12771.541
        571.00	     173486.55	     1101.7002	     12772.053
        572.00	     183570.38	     94.064999	     12772.358
        573.00	     188605.52	     865.30381	     12772.873
        574.00	     195017.19	     778.01249	     12773.178
        575.00	     203443.51	     70.855774	     12773.591
        576.00	     207300.84	     674.09405	     12774.107
        577.00	     214036.20	     112.03490	     12774.412
        578.00	     217769.37	     499.40603	     12774.927
        579.00	     223728.71	     47.282887	     12775.232
        580.00	     227241.04	     351.45760	     12775.747
        581.00	     231375.57	     349.30084	     12776.052
        582.00	     235589.72	     59.751551	     12776.465
        583.00	     238696.41	     252.56242	     12776.978
        584.00	     242916.88	     51.129625	     12777.282
        585.00	     246243.23	     68.169567	     12777.801
        586.00	     249160.73	     181.49125	     12778.314
        587.00	     252772.21	     55.218014	     12778.618
        588.00	     255145.71	     182.09693	     12779.134
        589.00	     258824.54	     37.266255	     12779.439
        590.00	     261299.72	     140.14031	     12779.954
        591.00	     264368.74	     45.466522	     12780.262
        592.00	     267464.27	     124.55260	     12780.774
        593.00	     269579.43	     133.78731	     12781.079
        594.00	     272544.93	     97.798507	     12781.383
        595.00	     275286.48	     50.937426	     12781.796
        596.00	     278059.94	     82.474734	     12782.315
        597.00	     281136.11	     87.756139	     12782.620
        598.00	     283572.58	     77.424807	     12782.924
        599.00	     286439.55	     72.393903	     12783.337
        600.00	     289307.98	     82.728530	     12783.642
        601.00	     291674.31	     73.118149	     12784.164
        602.00	     294844.73	     90.923368	     12784.468
        603.00	     297552.63	     95.565475	     12784.882
        604.00	     300236.45	     67.331748	     12785.394
        605.00	     303282.22	     71.835708	     12785.699
        606.00	     306314.52	     69.253048	     12786.003
        607.00	     309257.81	     58.020161	     12786.416
        608.00	     311924.85	     77.445895	     12786.935
        609.00	     315333.43	     65.195630	     12787.240
        610.00	     318670.13	     53.952376	     12787.759
        611.00	     321625.65	     70.464157	     12788.271
        612.00	     324871.05	     62.698363	     12788.784
        613.00	     328200.26	     100.33347	     12789.088
        614.00	     331327.33	     46.269675	     12789.501
        615.00	     334691.65	     100.32567	     12790.014
        616.00	     338135.55	     85.371911	     12790.319
        617.00	     341392.28	     92.009044	     12790.834
        618.00	     345500.75	     54.265022	     12791.139
        619.00	     348659.32	     50.758187	     12791.443
        620.00	     352840.82	     84.435617	     12791.965
        621.00	     356641.21	     101.63098	     12792.478
        622.00	     360106.88	     83.153878	     12792.783
        623.00	     364120.09	     64.940414	     12793.195
        624.00	     368089.00	     70.467542	     12793.708
        625.00	     371797.59	     83.768239	     12794.013
        626.00	     375907.96	     59.357227	     12794.426
        627.00	     380386.82	     85.775440	     12794.939
        628.00	     383682.95	     84.376681	     12795.243
        629.00	     388524.25	     84.211723	     12795.656
        630.00	     392589.08	     107.06111	     12796.169
        631.00	     396798.00	     91.538012	     12796.682
        632.00	     401403.42	     103.30476	     12797.194
        633.00	     405894.72	     109.80003	     12797.498
        634.00	     410197.07	     76.647815	     12797.912
        635.00	     414064.20	     166.29264	     12798.424
        636.00	     418976.26	     153.08016	     12798.729
        637.00	     423544.52	     108.29048	     12799.033
        638.00	     427491.38	     105.94103	     12799.447
        639.00	     432424.69	     161.20987	     12799.965
        640.00	     436590.66	     187.27794	     12800.270
        641.00	     441389.02	     193.34092	     12800.574
        642.00	     445303.18	     105.48520	     12800.987
        643.00	     449792.86	     193.25778	     12801.506
        644.00	     454094.69	     115.80288	     12801.811
        645.00	     458567.75	     88.230962	     12802.330
        646.00	     463837.20	     171.92300	     12802.842
        647.00	     467749.80	     112.96643	     12803.147
        648.00	     472335.83	     265.97639	     12803.666
        649.00	     476616.14	     277.78899	     12803.970
        650.00	     480714.34	     58.890189	     12804.383
        651.00	     486218.31	     315.39111	     12804.899
        652.00	     489816.01	     122.19495	     12805.204
        653.00	     495766.79	     301.30504	     12805.719
        654.00	     499271.39	     115.70182	     12806.027
        655.00	     503801.31	     341.55581	     12806.543
        656.00	     508316.32	     312.67824	     12806.847
        657.00	     511709.06	     110.54226	     12807.260
        658.00	     516833.91	     535.83435	     12807.776
        659.00	     519850.23	     150.64368	     12808.081
        660.00	     524637.06	     564.97345	     12808.596
        661.00	     527596.95	     612.72115	     12808.900
        662.00	     530291.93	     622.26170	     12809.205
        663.00	     532686.06	     212.49874	     12809.618
        664.00	     537843.20	     722.51726	     12810.137
        665.00	     538313.76	     144.67119	     12810.442
        666.00	     543714.86	     804.01612	     12810.958
        667.00	     546011.12	     910.62305	     12811.262
        668.00	     544835.82	     190.31799	     12811.675
        669.00	     547066.55	     185.43316	     12812.188
        670.00	     548266.84	     150.58102	     12812.701
        671.00	     551634.94	     1120.6181	     12813.213
        672.00	     551870.92	     1146.7447	     12813.518
        673.00	     549358.95	     287.34173	     12813.931
        674.00	     552390.17	     1353.8814	     12814.443
        675.00	     548269.92	     209.40447	     12814.748
        676.00	     549874.63	     1490.6905	     12815.267
        677.00	     549518.24	     1469.0128	     12815.571
        678.00	     543395.84	     363.45346	     12815.984
        679.00	     540866.07	     341.31042	     12816.500
        680.00	     542344.69	     1786.5260	     12817.013
        681.00	     540247.32	     1797.3446	     12817.317
        682.00	     536905.79	     1868.3904	     12817.621
        683.00	     529691.58	     217.53313	     12818.035
        684.00	     529558.84	     2047.7825	     12818.554
        685.00	     525543.04	     1940.9611	     12818.858
        686.00	     515156.46	     390.35901	     12819.271
        687.00	     514425.00	     1960.2538	     12819.784
        688.00	     508958.95	     1817.7326	     12820.088
        689.00	     497681.62	     392.75099	     12820.502
        690.00	     492544.24	     436.17177	     12821.015
        691.00	     492312.96	     2004.5967	     12821.530
        692.00	     484173.44	     2318.0514	     12821.835
        693.00	     472308.77	     425.54096	     12822.248
        694.00	     466215.36	     467.87539	     12822.761
        695.00	     465005.56	     2324.7333	     12823.273
        696.00	     457691.22	     2022.7808	     12823.577
        697.00	     444378.61	     366.15925	     12823.991
        698.00	     436758.63	     409.00395	     12824.503
        699.00	     434784.16	     2069.1967	     12825.019
        700.00	     422210.68	     421.97494	     12825.324
        701.00	     413989.98	     452.27344	     12825.839
        702.00	     412255.04	     2131.1199	     12826.355
        703.00	     397951.70	     289.35722	     12826.660
        704.00	     396078.92	     2140.3509	     12827.178
        705.00	     388861.30	     2164.8727	     12827.483
        706.00	     379866.63	     2253.7410	     12827.787
        707.00	     368055.24	     378.46344	     12828.200
        708.00	     359983.54	     195.89065	     12828.719
        709.00	     357838.04	     1999.1649	     12829.235
        710.00	     349534.41	     2111.1487	     12829.540
        711.00	     337347.68	     461.34488	     12829.953
        712.00	     334193.58	     2157.2821	     12830.465
        713.00	     321648.41	     309.33357	     12830.770
        714.00	     320529.69	     2100.5269	     12831.285
        715.00	     312521.86	     2126.9675	     12831.590
        716.00	     301106.78	     422.35932	     12832.003
        717.00	     299816.06	     1891.3341	     12832.516
        718.00	     287314.08	     182.12621	     12832.821
        719.00	     285287.61	     1794.6107	     12833.336
        720.00	     274678.16	     442.36606	     12833.641
        721.00	     271806.40	     1877.0671	     12834.156
        722.00	     265350.39	     1477.9516	     12834.461
        723.00	     259328.71	     1524.1935	     12834.765
        724.00	     248789.98	     317.67231	     12835.178
        725.00	     247133.87	     1560.3414	     12835.697
        726.00	     239895.18	     1496.3097	     12836.002
        727.00	     234589.67	     1502.1902	     12836.306
        728.00	     225366.53	     436.00649	     12836.720
        729.00	     223184.28	     1472.6222	     12837.238
        730.00	     217254.15	     1295.2317	     12837.543
        731.00	     211281.93	     1102.7605	     12837.847
        732.00	     203992.82	     281.60752	     12838.260
        733.00	     201932.07	     1383.2056	     12838.779
        734.00	     194215.97	     369.34536	     12839.084
        735.00	     191975.82	     1380.1860	     12839.603
        736.00	     187381.01	     1185.9178	     12839.907
        737.00	     180056.80	     480.13288	     12840.320
        738.00	     175409.88	     363.95449	     12840.836
        739.00	     171102.30	     364.30760	     12841.349
        740.00	     165995.91	     327.16061	     12841.862
        741.00	     164886.89	     1131.6148	     12842.377
        742.00	     160350.77	     996.13716	     12842.682
        743.00	     154853.50	     362.09294	     12843.095
        744.00	     152775.88	     1002.1118	     12843.607
        745.00	     148804.47	     926.36438	     12843.912
        746.00	     143481.59	     352.27945	     12844.325
        747.00	     141378.51	     817.09907	     12844.838
        748.00	     138290.04	     1119.8079	     12845.142
        749.00	     132122.40	     420.34950	     12845.450
        750.00	     130555.71	     708.24647	     12845.968
        751.00	     127867.46	     727.94592	     12846.273
        752.00	     122425.42	     319.91290	     12846.686
        753.00	     119105.91	     400.84530	     12847.199
        754.00	     115962.46	     323.30963	     12847.712
        755.00	     115227.71	     727.94701	     12848.224
        756.00	     112629.89	     787.71256	     12848.529
        757.00	     108602.94	     247.76790	     12848.942
        758.00	     107264.96	     609.09120	     12849.455
        759.00	     102464.59	     266.44151	     12849.759
        760.00	     102210.04	     694.75327	     12850.275
        761.00	     97788.960	     283.16785	     12850.582
        762.00	     95498.942	     253.09565	     12851.098
        763.00	     92899.026	     377.21931	     12851.611
        764.00	     92018.951	     458.96200	     12852.123
        765.00	     89807.576	     629.32491	     12852.428
        766.00	     87033.870	     570.87077	     12852.732
        767.00	     83673.994	     276.85026	     12853.145
        768.00	     83037.558	     721.05816	     12853.664
        769.00	     81283.858	     558.02704	     12853.969
        770.00	     78923.434	     578.98289	     12854.273
        771.00	     75286.929	     345.59917	     12854.686
        772.00	     75095.368	     593.06801	     12855.205
        773.00	     72177.197	     410.12679	     12855.510
        774.00	     70870.888	     679.12059	     12856.028
        775.00	     68505.440	     412.50544	     12856.333
        776.00	     67156.237	     468.50097	     12856.849
        777.00	     66319.605	     442.61587	     12857.154
        778.00	     63656.760	     296.27800	     12857.567
        779.00	     62719.866	     446.04900	     12858.079
        780.00	     60150.661	     263.24839	     12858.384
        781.00	     59209.199	     461.86169	     12858.899
        782.00	     58095.988	     340.66753	     12859.204
        783.00	     56284.794	     427.35152	     12859.508
        784.00	     54411.434	     222.43768	     12859.921
        785.00	     53699.379	     339.11751	     12860.440
        786.00	     52731.474	     369.41516	     12860.745
        787.00	     51651.772	     349.65461	     12861.049
        788.00	     48907.618	     216.56630	     12861.463
        789.00	     48566.686	     307.54012	     12861.981
        790.00	     47664.492	     405.60769	     12862.286
        791.00	     47533.430	     337.89896	     12862.591
        792.00	     45828.316	     258.98095	     12863.004
        793.00	     45144.738	     399.78588	     12863.522
        794.00	     44435.200	     275.97101	     12863.827
        795.00	     43156.496	     359.22647	     12864.131
        796.00	     40902.169	     248.75029	     12864.545
        797.00	     39467.953	     235.64907	     12865.064
        798.00	     37681.283	     155.61611	     12865.368
        799.00	     35468.629	     253.74275	     12865.884
        800.00	     34428.946	     219.97845	     12866.188
