Title=200220_em_NaOH-EtOH_2,0uM_NRA1
Comment=
Signature=ISS_Experiment_Ver_1_0
Timestamp=Thu Feb 20 20:14:45 2020
Product=Vinci2
SoftwareVersion=BETA.2.4
BuildNumber=234
RealTimeStart=11515.5774251

AcquisitionType=Photon Counting
AcquisitionFormat=L
AcquisitionSide=Right
Detector Gains=(0.0, 0.0)

Measurable=Intensity
MaxIterations=10

RightEmissionWavelengthBandwidth=8.0
ExcitationWavelengthBandwidth=8.0
Visualization=Y:Intensity,X:EmissionWavelength,PlotType:2D


EmissionWavelength=type:numeric,unit:nm,from:400.0,to:800.0,step:1.0
ExcitationWavelength=type:numeric,unit:nm,fixed:568.0

Space=EmissionWavelength
Columns=EmissionWavelength,Intensity,IntensityStdError,RealTime
[Data]
        400.00	     123.28907	     1.6463352	     11518.496
        401.00	     122.89831	     1.5491552	     11519.067
        402.00	     118.39847	     3.1906411	     11519.372
        403.00	     118.68229	     1.7788698	     11519.676
        404.00	     119.98813	     3.1270859	     11520.089
        405.00	     116.88548	     1.6835734	     11520.608
        406.00	     119.28508	     2.3947147	     11520.913
        407.00	     114.37040	     2.0177577	     11521.217
        408.00	     112.07115	     2.1512530	     11521.630
        409.00	     113.69908	     2.6531549	     11522.149
        410.00	     119.59267	     2.4251759	     11522.454
        411.00	     116.32538	     1.9716745	     11522.867
        412.00	     111.29051	     2.8582508	     11523.380
        413.00	     106.45046	     2.8644386	     11523.892
        414.00	     111.60314	     2.3607289	     11524.197
        415.00	     108.83444	     2.1242334	     11524.501
        416.00	     105.42469	     1.8752890	     11524.915
        417.00	     106.30769	     2.6774586	     11525.433
        418.00	     109.10752	     3.7066288	     11525.738
        419.00	     108.90760	     2.6854117	     11526.151
        420.00	     103.74459	     2.6714557	     11526.664
        421.00	     106.96132	     1.8982070	     11526.968
        422.00	     107.86866	     2.1365709	     11527.381
        423.00	     107.92237	     3.1462009	     11527.894
        424.00	     106.24135	     2.1608270	     11528.198
        425.00	     108.31694	     2.2228839	     11528.612
        426.00	     108.02100	     1.7391321	     11529.124
        427.00	     108.55924	     1.1984327	     11529.429
        428.00	     108.41147	     2.3776539	     11529.945
        429.00	     108.17995	     2.1119123	     11530.249
        430.00	     104.66308	     2.2954190	     11530.765
        431.00	     106.93930	     1.8405744	     11531.277
        432.00	     106.34089	     2.7632904	     11531.582
        433.00	     110.68002	     3.2649911	     11531.995
        434.00	     108.03708	     1.3806001	     11532.507
        435.00	     105.92709	     2.2898864	     11532.812
        436.00	     107.92810	     2.3540883	     11533.328
        437.00	     108.19789	     2.3602211	     11533.633
        438.00	     109.46143	     3.2477995	     11534.148
        439.00	     104.97899	     3.8601690	     11534.452
        440.00	     113.91467	     2.5137828	     11534.866
        441.00	     113.76403	     2.7656332	     11535.378
        442.00	     107.15838	     2.1755243	     11535.683
        443.00	     109.42043	     3.0228884	     11535.987
        444.00	     109.05119	     3.8318918	     11536.400
        445.00	     115.26873	     2.5888618	     11536.919
        446.00	     111.60012	     2.3238165	     11537.224
        447.00	     113.32540	     2.8667106	     11537.528
        448.00	     115.28815	     2.6894864	     11537.941
        449.00	     116.89534	     2.5551264	     11538.460
        450.00	     117.57155	     2.2717556	     11538.765
        451.00	     113.90874	     2.2208220	     11539.069
        452.00	     116.27850	     1.7593717	     11539.482
        453.00	     115.17974	     1.9619812	     11540.001
        454.00	     120.24791	     3.1675718	     11540.306
        455.00	     120.79618	     3.3199266	     11540.610
        456.00	     116.16378	     2.5385183	     11541.023
        457.00	     121.55419	     2.9249654	     11541.542
        458.00	     126.06357	     1.6582325	     11541.847
        459.00	     119.62782	     3.1129696	     11542.366
        460.00	     127.67337	     3.6602662	     11542.670
        461.00	     124.77115	     2.4700912	     11543.186
        462.00	     128.38201	     2.8285091	     11543.491
        463.00	     133.14178	     3.1375698	     11544.006
        464.00	     131.84400	     1.9083657	     11544.310
        465.00	     133.35364	     1.9459167	     11544.724
        466.00	     131.59807	     2.8434183	     11545.236
        467.00	     129.39209	     2.0349077	     11545.541
        468.00	     127.47729	     3.1984862	     11545.954
        469.00	     139.80730	     3.5168392	     11546.467
        470.00	     130.83668	     2.5548653	     11546.979
        471.00	     132.63225	     2.9387033	     11547.284
        472.00	     137.78994	     3.1640023	     11547.588
        473.00	     134.47148	     2.1854019	     11548.001
        474.00	     137.36979	     2.7060621	     11548.520
        475.00	     135.78586	     2.9085714	     11548.825
        476.00	     140.09082	     4.7931287	     11549.344
        477.00	     144.02236	     3.8247627	     11549.648
        478.00	     144.37956	     3.8321112	     11550.061
        479.00	     144.29881	     3.4993874	     11550.577
        480.00	     140.66265	     2.7590687	     11550.881
        481.00	     144.17816	     3.5988846	     11551.186
        482.00	     151.56045	     3.8230028	     11551.506
        483.00	     143.74476	     3.0464374	     11551.919
        484.00	     149.73110	     3.5027664	     11552.429
        485.00	     146.81380	     4.7444285	     11552.733
        486.00	     149.90595	     3.3455009	     11553.037
        487.00	     153.39519	     3.3614785	     11553.451
        488.00	     150.83128	     4.5935217	     11553.970
        489.00	     151.57069	     2.3098115	     11554.482
        490.00	     155.14833	     5.5954786	     11554.787
        491.00	     151.72478	     3.1890882	     11555.302
        492.00	     157.92778	     3.0576342	     11555.607
        493.00	     157.35948	     1.6351476	     11556.020
        494.00	     156.57472	     3.6613146	     11556.536
        495.00	     163.32988	     3.2299216	     11556.840
        496.00	     162.16791	     2.8268537	     11557.254
        497.00	     163.76573	     2.7141466	     11557.766
        498.00	     160.27722	     2.8466002	     11558.071
        499.00	     169.11693	     3.4186997	     11558.375
        500.00	     181.38728	     3.6491759	     11558.897
        501.00	     184.48264	     3.5413831	     11559.202
        502.00	     190.72089	     3.0148843	     11559.721
        503.00	     203.72727	     4.3549281	     11560.025
        504.00	     205.07308	     3.3463497	     11560.438
        505.00	     206.00682	     5.3160947	     11560.951
        506.00	     214.36712	     4.7854984	     11561.463
        507.00	     217.18689	     3.5466305	     11561.768
        508.00	     217.52776	     5.4535333	     11562.181
        509.00	     226.89551	     4.9934945	     11562.694
        510.00	     231.85496	     5.9032047	     11562.998
        511.00	     220.72137	     4.4381048	     11563.411
        512.00	     230.97295	     5.7774832	     11563.716
        513.00	     233.73771	     4.2274333	     11564.232
        514.00	     239.16458	     3.7692416	     11564.536
        515.00	     244.88208	     4.7243810	     11564.949
        516.00	     248.47354	     5.6242944	     11565.462
        517.00	     247.91548	     3.4025108	     11565.766
        518.00	     261.23705	     5.1827587	     11566.180
        519.00	     250.78965	     5.8615038	     11566.692
        520.00	     265.30174	     3.0321981	     11566.997
        521.00	     277.27932	     5.6479293	     11567.516
        522.00	     274.89477	     5.2559714	     11567.820
        523.00	     298.13038	     4.0202511	     11568.233
        524.00	     300.28521	     5.6107816	     11568.749
        525.00	     314.49877	     4.3359368	     11569.054
        526.00	     333.52438	     4.4785993	     11569.467
        527.00	     356.14885	     5.7311874	     11569.979
        528.00	     361.48974	     4.6830713	     11570.284
        529.00	     377.37726	     4.7548766	     11570.697
        530.00	     397.68514	     6.4145231	     11571.210
        531.00	     416.11497	     4.4346652	     11571.514
        532.00	     431.78242	     5.8234377	     11571.819
        533.00	     461.86109	     6.4125642	     11572.232
        534.00	     486.14417	     5.5147778	     11572.751
        535.00	     501.01457	     7.8506088	     11573.055
        536.00	     521.99582	     6.2437741	     11573.359
        537.00	     574.53914	     7.4571241	     11573.773
        538.00	     561.61140	     6.2862034	     11574.292
        539.00	     591.17890	     6.2728796	     11574.596
        540.00	     641.07199	     11.623054	     11574.901
        541.00	     685.19209	     9.4904194	     11575.314
        542.00	     699.11088	     10.552548	     11575.833
        543.00	     749.43295	     7.2654328	     11576.137
        544.00	     784.76005	     12.198200	     11576.656
        545.00	     834.87225	     10.436145	     11576.960
        546.00	     900.57189	     7.9112408	     11577.374
        547.00	     940.90611	     16.930750	     11577.886
        548.00	     1076.5411	     22.295255	     11578.191
        549.00	     1250.8057	     35.328496	     11578.495
        550.00	     1642.3947	     6.5255805	     11578.909
        551.00	     2063.2909	     100.33804	     11579.427
        552.00	     3042.8411	     167.85469	     11579.732
        553.00	     4681.8895	     266.49310	     11580.036
        554.00	     7800.8057	     35.747243	     11580.449
        555.00	     9825.7444	     493.53295	     11580.968
        556.00	     13523.307	     593.03304	     11581.273
        557.00	     18062.986	     678.89935	     11581.577
        558.00	     24648.873	     55.191099	     11581.991
        559.00	     28158.701	     852.88081	     11582.509
        560.00	     33597.602	     800.01562	     11582.814
        561.00	     39275.365	     797.06226	     11583.118
        562.00	     46953.253	     68.598685	     11583.532
        563.00	     50202.658	     852.12477	     11584.051
        564.00	     55913.034	     783.06304	     11584.355
        565.00	     63291.856	     71.323489	     11584.768
        566.00	     66891.988	     710.75406	     11585.280
        567.00	     71955.826	     661.51212	     11585.585
        568.00	     77413.665	     74.495897	     11585.998
        569.00	     80400.215	     466.14109	     11586.514
        570.00	     82712.179	     244.13802	     11586.819
        571.00	     84755.655	     86.763020	     11587.232
        572.00	     85268.105	     86.479986	     11587.744
        573.00	     85361.991	     198.40287	     11588.049
        574.00	     83282.180	     54.629026	     11588.462
        575.00	     82456.110	     393.52222	     11588.975
        576.00	     80167.079	     523.68342	     11589.279
        577.00	     77443.709	     465.48449	     11589.584
        578.00	     74178.828	     86.700273	     11589.997
        579.00	     73056.488	     462.45516	     11590.516
        580.00	     70802.273	     443.62295	     11590.820
        581.00	     68471.764	     412.90865	     11591.125
        582.00	     65689.045	     134.48553	     11591.538
        583.00	     64954.255	     273.80476	     11592.057
        584.00	     63912.968	     208.19425	     11592.361
        585.00	     63584.776	     134.59354	     11592.666
        586.00	     64406.146	     54.071549	     11593.079
        587.00	     65964.475	     237.06872	     11593.598
        588.00	     68874.647	     435.36216	     11593.902
        589.00	     73016.852	     531.12167	     11594.206
        590.00	     79496.277	     107.88076	     11594.620
        591.00	     83456.378	     901.05794	     11595.139
        592.00	     92621.218	     89.371057	     11595.443
        593.00	     97132.048	     1019.6118	     11595.962
        594.00	     107051.30	     100.23138	     11596.267
        595.00	     112257.77	     1093.2354	     11596.782
        596.00	     120264.57	     1058.2613	     11597.087
        597.00	     128353.47	     1063.1909	     11597.391
        598.00	     139310.26	     164.15364	     11597.804
        599.00	     144547.41	     1201.0274	     11598.323
        600.00	     153562.18	     1209.4770	     11598.628
        601.00	     164692.52	     153.98219	     11599.041
        602.00	     173169.64	     136.94386	     11599.554
        603.00	     181711.44	     123.98042	     11600.066
        604.00	     187552.89	     1105.1313	     11600.579
        605.00	     196438.67	     975.22885	     11600.883
        606.00	     207211.18	     125.05171	     11601.296
        607.00	     213163.59	     971.19830	     11601.809
        608.00	     220796.64	     825.42157	     11602.114
        609.00	     230951.84	     114.96168	     11602.527
        610.00	     238808.39	     131.16154	     11603.040
        611.00	     244069.57	     782.04506	     11603.552
        612.00	     253397.46	     105.29672	     11603.857
        613.00	     258722.05	     748.13378	     11604.372
        614.00	     265355.17	     658.04457	     11604.677
        615.00	     272083.66	     507.37481	     11604.981
        616.00	     279731.44	     91.644874	     11605.394
        617.00	     284602.37	     522.11375	     11605.913
        618.00	     291978.55	     103.12741	     11606.218
        619.00	     296552.20	     387.19100	     11606.736
        620.00	     302712.52	     404.95555	     11607.041
        621.00	     309225.46	     68.517617	     11607.454
        622.00	     313635.02	     361.58527	     11607.967
        623.00	     319925.03	     121.59523	     11608.272
        624.00	     324386.17	     246.73279	     11608.787
        625.00	     329582.83	     242.28882	     11609.092
        626.00	     335039.60	     127.27819	     11609.505
        627.00	     339955.41	     245.63459	     11610.018
        628.00	     344161.32	     230.99105	     11610.322
        629.00	     349913.09	     70.916009	     11610.735
        630.00	     354644.61	     168.06047	     11611.248
        631.00	     359502.57	     80.235138	     11611.552
        632.00	     364279.52	     66.473052	     11612.071
        633.00	     369420.50	     133.17900	     11612.583
        634.00	     374055.01	     92.143777	     11612.888
        635.00	     377621.84	     122.50808	     11613.407
        636.00	     382485.92	     174.32840	     11613.712
        637.00	     386916.49	     118.02202	     11614.125
        638.00	     391379.22	     157.25959	     11614.640
        639.00	     396028.34	     112.13164	     11615.153
        640.00	     399675.45	     191.29475	     11615.458
        641.00	     403774.20	     98.447054	     11615.871
        642.00	     408130.31	     236.38070	     11616.383
        643.00	     411566.77	     252.36243	     11616.688
        644.00	     414752.84	     105.51023	     11617.101
        645.00	     418893.27	     332.71632	     11617.614
        646.00	     422598.50	     395.82793	     11617.918
        647.00	     425765.19	     323.54468	     11618.223
        648.00	     427465.75	     166.59556	     11618.636
        649.00	     431337.87	     482.46281	     11619.155
        650.00	     433781.78	     535.02996	     11619.459
        651.00	     436537.39	     475.00294	     11619.764
        652.00	     437558.93	     100.68966	     11620.177
        653.00	     441047.28	     643.89865	     11620.696
        654.00	     442436.76	     690.37995	     11621.000
        655.00	     443106.10	     744.74562	     11621.305
        656.00	     442264.93	     189.87305	     11621.718
        657.00	     443480.61	     228.27946	     11622.237
        658.00	     445694.71	     1025.0856	     11622.749
        659.00	     445681.25	     992.59367	     11623.054
        660.00	     445038.00	     1077.8458	     11623.358
        661.00	     441613.40	     139.00062	     11623.771
        662.00	     442668.23	     1255.6259	     11624.290
        663.00	     440710.69	     1346.2952	     11624.595
        664.00	     436795.01	     213.75633	     11625.008
        665.00	     437266.76	     1371.1828	     11625.521
        666.00	     432417.19	     333.46970	     11625.825
        667.00	     432943.42	     1539.0585	     11626.344
        668.00	     429172.37	     1371.9257	     11626.648
        669.00	     422678.86	     158.69682	     11627.061
        670.00	     419283.69	     343.61960	     11627.575
        671.00	     415245.90	     333.15811	     11628.090
        672.00	     415221.36	     1567.6528	     11628.603
        673.00	     411010.36	     1561.6334	     11628.907
        674.00	     402797.94	     199.25505	     11629.320
        675.00	     402257.23	     1816.8550	     11629.836
        676.00	     392646.77	     219.51471	     11630.141
        677.00	     388593.69	     471.56557	     11630.657
        678.00	     387546.41	     1686.7704	     11631.172
        679.00	     383398.42	     1583.5232	     11631.477
        680.00	     377275.56	     299.98586	     11631.890
        681.00	     375209.79	     361.26391	     11632.403
        682.00	     374085.07	     1770.0785	     11632.915
        683.00	     364629.86	     210.85251	     11633.220
        684.00	     362298.56	     1766.6898	     11633.735
        685.00	     352730.02	     434.93385	     11634.043
        686.00	     347040.11	     267.05386	     11634.556
        687.00	     344362.65	     1763.9046	     11635.068
        688.00	     338586.27	     1523.7822	     11635.373
        689.00	     329231.92	     339.86702	     11635.785
        690.00	     328097.96	     1593.8827	     11636.299
        691.00	     318844.43	     247.10068	     11636.603
        692.00	     317218.45	     1589.9089	     11637.119
        693.00	     311944.19	     1583.4730	     11637.423
        694.00	     303097.80	     425.87900	     11637.836
        695.00	     301183.58	     1563.6978	     11638.349
        696.00	     297332.34	     1427.2815	     11638.653
        697.00	     288333.76	     205.46673	     11639.066
        698.00	     286600.14	     1597.5950	     11639.579
        699.00	     281728.06	     1443.0256	     11639.884
        700.00	     273932.78	     330.60747	     11640.297
        701.00	     272455.57	     1419.4469	     11640.809
        702.00	     266609.27	     1245.3105	     11641.114
        703.00	     258604.79	     339.84910	     11641.527
        704.00	     258055.38	     1352.2162	     11642.043
        705.00	     253480.07	     1298.4962	     11642.347
        706.00	     245318.44	     476.53217	     11642.761
        707.00	     243879.79	     1415.2701	     11643.273
        708.00	     239565.98	     1319.2517	     11643.578
        709.00	     234011.87	     1208.2784	     11643.882
        710.00	     227027.99	     357.57783	     11644.295
        711.00	     222875.34	     330.11773	     11644.814
        712.00	     220640.72	     1430.3482	     11645.330
        713.00	     216359.60	     1271.2169	     11645.634
        714.00	     209973.53	     338.68846	     11646.047
        715.00	     204829.13	     514.17820	     11646.561
        716.00	     203471.43	     1029.5200	     11647.076
        717.00	     199963.81	     1296.3260	     11647.380
        718.00	     192501.58	     234.25040	     11647.794
        719.00	     191468.29	     1112.9613	     11648.306
        720.00	     184101.26	     248.38236	     11648.611
        721.00	     183490.59	     1181.2160	     11649.126
        722.00	     178461.69	     1069.1364	     11649.431
        723.00	     171687.35	     352.20624	     11649.844
        724.00	     170622.82	     1211.7750	     11650.357
        725.00	     166176.06	     1056.7834	     11650.661
        726.00	     164474.81	     1051.2158	     11651.074
        727.00	     155621.80	     214.56303	     11651.379
        728.00	     154492.06	     1122.7769	     11651.895
        729.00	     148427.89	     189.59360	     11652.200
        730.00	     146883.21	     1042.9128	     11652.718
        731.00	     143342.30	     917.33745	     11653.023
        732.00	     137524.24	     253.30440	     11653.436
        733.00	     135972.97	     848.27401	     11653.949
        734.00	     130958.42	     191.23315	     11654.253
        735.00	     129566.53	     911.73470	     11654.769
        736.00	     126444.91	     873.76427	     11655.073
        737.00	     121354.83	     404.58735	     11655.487
        738.00	     119990.97	     720.90961	     11656.002
        739.00	     116362.10	     850.46827	     11656.306
        740.00	     111383.47	     375.05907	     11656.720
        741.00	     108856.75	     323.81714	     11657.233
        742.00	     107743.84	     755.49310	     11657.745
        743.00	     104860.93	     447.92599	     11658.050
        744.00	     100398.40	     315.78927	     11658.463
        745.00	     99085.040	     732.90218	     11658.975
        746.00	     96928.649	     676.96759	     11659.280
        747.00	     93798.235	     693.82978	     11659.584
        748.00	     90110.653	     231.67372	     11659.997
        749.00	     89114.667	     542.99290	     11660.516
        750.00	     86729.761	     622.39071	     11660.821
        751.00	     84826.190	     452.33818	     11661.125
        752.00	     81912.020	     317.42920	     11661.539
        753.00	     80903.885	     534.52534	     11662.058
        754.00	     78791.287	     545.52498	     11662.362
        755.00	     75652.423	     453.16818	     11662.666
        756.00	     72985.591	     309.58951	     11663.080
        757.00	     72867.695	     601.99916	     11663.598
        758.00	     70792.369	     514.50545	     11663.903
        759.00	     68530.638	     522.63387	     11664.207
        760.00	     66316.305	     266.85345	     11664.621
        761.00	     65837.436	     601.23537	     11665.139
        762.00	     63501.010	     388.56918	     11665.444
        763.00	     61861.591	     613.10503	     11665.748
        764.00	     59451.343	     177.24238	     11666.161
        765.00	     58583.700	     449.65468	     11666.681
        766.00	     57590.349	     402.29990	     11666.985
        767.00	     55645.552	     318.21457	     11667.289
        768.00	     53626.739	     159.09479	     11667.703
        769.00	     52682.551	     333.22166	     11668.221
        770.00	     51289.353	     257.37157	     11668.526
        771.00	     50236.496	     391.97868	     11669.045
        772.00	     47917.422	     190.19750	     11669.349
        773.00	     47849.177	     334.91301	     11669.865
        774.00	     46714.594	     218.44760	     11670.169
        775.00	     44699.466	     197.41892	     11670.582
        776.00	     44254.841	     213.83039	     11671.095
        777.00	     42663.930	     204.00161	     11671.400
        778.00	     42223.817	     398.43254	     11671.915
        779.00	     40922.782	     318.52811	     11672.220
        780.00	     39378.742	     220.65584	     11672.633
        781.00	     39426.609	     342.04966	     11673.146
        782.00	     37953.392	     168.68527	     11673.450
        783.00	     37348.311	     421.16167	     11673.966
        784.00	     36410.897	     267.39295	     11674.270
        785.00	     35167.893	     203.33705	     11674.684
        786.00	     34887.105	     293.53645	     11675.196
        787.00	     33731.831	     149.19419	     11675.501
        788.00	     33044.676	     249.40254	     11676.016
        789.00	     31950.429	     254.94625	     11676.321
        790.00	     31720.920	     135.30720	     11676.734
        791.00	     31155.872	     201.92539	     11677.247
        792.00	     30701.428	     179.85286	     11677.551
        793.00	     30141.952	     135.82503	     11678.070
        794.00	     29226.400	     215.01421	     11678.375
        795.00	     28525.034	     224.14524	     11678.890
        796.00	     27672.798	     255.67722	     11679.195
        797.00	     26305.865	     157.72259	     11679.499
        798.00	     24957.991	     197.42954	     11680.021
        799.00	     23845.493	     118.71864	     11680.534
        800.00	     23005.797	     202.21711	     11681.046
