Title=200220_em_NaOH-MeCN_2,0uM_RhoB
Comment=
Signature=ISS_Experiment_Ver_1_0
Timestamp=Thu Feb 20 21:08:13 2020
Product=Vinci2
SoftwareVersion=BETA.2.4
BuildNumber=234
RealTimeStart=12511.9777444

AcquisitionType=Photon Counting
AcquisitionFormat=L
AcquisitionSide=Right
Detector Gains=(0.0, 0.0)

Measurable=Intensity
MaxIterations=10

RightEmissionWavelengthBandwidth=8.0
ExcitationWavelengthBandwidth=8.0
Visualization=Y:Intensity,X:EmissionWavelength,PlotType:2D


EmissionWavelength=type:numeric,unit:nm,from:400.0,to:800.0,step:1.0
ExcitationWavelength=type:numeric,unit:nm,fixed:556.0

Space=EmissionWavelength
Columns=EmissionWavelength,Intensity,IntensityStdError,RealTime
[Data]
        400.00	     9.9590272	     1.3331996	     12515.095
        401.00	     8.5486485	    0.87673615	     12515.666
        402.00	     8.9893863	     1.0227023	     12515.971
        403.00	     9.8730497	     1.8043790	     12516.384
        404.00	     10.885192	     1.4852562	     12516.897
        405.00	     7.5674689	     1.7259021	     12517.201
        406.00	     6.6370507	     1.0688028	     12517.614
        407.00	     6.9693752	     1.4202334	     12518.127
        408.00	     8.0941534	    0.74529253	     12518.431
        409.00	     4.2370920	     1.4920263	     12518.844
        410.00	     7.5226914	    0.77761896	     12519.357
        411.00	     8.8836058	     1.4608908	     12519.662
        412.00	     6.8479490	     1.7645362	     12520.075
        413.00	     7.5306954	     1.1366584	     12520.587
        414.00	     6.2859027	     2.2896738	     12520.892
        415.00	     5.6144752	     1.5290494	     12521.196
        416.00	     6.6445089	     1.2324257	     12521.610
        417.00	     8.9272951	     1.3976950	     12522.128
        418.00	     8.5999443	     1.2752029	     12522.433
        419.00	     8.2685720	     1.2603059	     12522.846
        420.00	     7.5983239	     1.2324767	     12523.359
        421.00	     6.3607312	     1.6704117	     12523.663
        422.00	     5.3382104	     1.7167431	     12524.076
        423.00	     6.4919171	     1.0180261	     12524.589
        424.00	     4.0764620	    0.67036110	     12524.894
        425.00	     8.3729940	    0.94111802	     12525.412
        426.00	     5.9535488	     1.0845012	     12525.717
        427.00	     6.2093655	    0.77617008	     12526.233
        428.00	     10.181778	     1.4534831	     12526.537
        429.00	     9.1531494	     1.0266865	     12526.950
        430.00	     7.1995442	     1.1784124	     12527.466
        431.00	     4.2841632	     2.1286893	     12527.771
        432.00	     6.1872784	     2.0886393	     12528.286
        433.00	     7.1528712	     1.5390191	     12528.591
        434.00	     6.1049975	     1.3879603	     12528.895
        435.00	     7.5577063	     1.1927293	     12529.308
        436.00	     6.7365479	     1.6435081	     12529.827
        437.00	     6.4012488	     1.4632434	     12530.132
        438.00	     5.4694573	     1.3348986	     12530.436
        439.00	     7.4208038	     1.8675814	     12530.849
        440.00	     4.6604765	     1.5223323	     12531.368
        441.00	     8.4567518	     1.5568033	     12531.673
        442.00	     7.6366870	     2.0380810	     12531.977
        443.00	     9.5201678	     1.6809943	     12532.390
        444.00	     5.1094606	     1.4539005	     12532.909
        445.00	     6.1123606	     1.2570965	     12533.214
        446.00	     5.3959951	     1.5289371	     12533.733
        447.00	     7.2919825	     1.8407548	     12534.037
        448.00	     9.4733291	     1.3276789	     12534.450
        449.00	     6.3650875	     1.1451660	     12534.966
        450.00	     7.5369634	     2.0672680	     12535.271
        451.00	     8.4452213	     1.5772108	     12535.786
        452.00	     8.6255461	     1.2370961	     12536.091
        453.00	     8.2637867	     1.3553106	     12536.395
        454.00	     12.313923	     1.8279547	     12536.808
        455.00	     8.7394403	     2.1354350	     12537.327
        456.00	     6.1825322	     1.5682144	     12537.632
        457.00	     8.1769958	     1.2167988	     12538.045
        458.00	     10.595349	     1.8842863	     12538.557
        459.00	     9.4526627	     1.4292969	     12538.862
        460.00	     7.4883300	     1.5483721	     12539.275
        461.00	     9.5320565	     1.6704083	     12539.788
        462.00	     10.274864	     1.6188264	     12540.092
        463.00	     8.4208867	     1.1867428	     12540.505
        464.00	     12.131385	     2.0574621	     12540.810
        465.00	     10.579717	     1.7652335	     12541.326
        466.00	     10.076464	     1.5592184	     12541.630
        467.00	     12.186512	     1.5891742	     12541.935
        468.00	     11.851252	     1.6710535	     12542.348
        469.00	     13.150467	     1.7399289	     12542.867
        470.00	     11.662868	    0.95644299	     12543.171
        471.00	     11.901086	     1.2471228	     12543.584
        472.00	     12.382111	     1.3197373	     12544.097
        473.00	     13.296248	     1.6444947	     12544.401
        474.00	     14.086273	     1.3462827	     12544.815
        475.00	     10.717662	     2.4690881	     12545.327
        476.00	     16.128687	     1.8370744	     12545.632
        477.00	     14.320736	     2.1234730	     12546.045
        478.00	     13.069595	     1.0994165	     12546.557
        479.00	     11.231081	     1.1841681	     12546.862
        480.00	     15.004411	     1.5354003	     12547.166
        481.00	     16.284422	     1.8624699	     12547.580
        482.00	     15.941115	     1.6743219	     12548.102
        483.00	     15.284939	     2.6248608	     12548.406
        484.00	     10.825031	     1.4725279	     12548.820
        485.00	     13.025035	     1.7938430	     12549.332
        486.00	     13.555325	     2.1901444	     12549.637
        487.00	     10.846747	     1.2787965	     12550.050
        488.00	     14.033705	     1.8657538	     12550.562
        489.00	     14.273193	     2.1644681	     12550.867
        490.00	     11.519206	     1.6715452	     12551.280
        491.00	     16.489764	     2.3569021	     12551.793
        492.00	     17.988159	     1.3594183	     12552.098
        493.00	     15.231427	     1.9948448	     12552.616
        494.00	     14.187378	     1.9406917	     12552.921
        495.00	     15.211464	    0.96683036	     12553.436
        496.00	     15.107204	     1.3650387	     12553.741
        497.00	     16.252310	     1.9868723	     12554.256
        498.00	     15.369049	     1.6780369	     12554.561
        499.00	     15.262522	     2.1662158	     12554.974
        500.00	     16.790555	     2.2607818	     12555.490
        501.00	     21.262774	     2.6460269	     12555.795
        502.00	     20.363913	     2.4577298	     12556.310
        503.00	     21.700800	     3.8065139	     12556.614
        504.00	     21.436074	     1.9907399	     12557.028
        505.00	     21.509948	     2.2747304	     12557.540
        506.00	     25.766455	     1.9267012	     12557.845
        507.00	     22.822609	     2.9397518	     12558.258
        508.00	     29.501655	     3.1786663	     12558.771
        509.00	     31.521416	     2.8804549	     12559.075
        510.00	     34.390978	     1.8308163	     12559.594
        511.00	     41.340528	     2.2009533	     12559.899
        512.00	     33.122397	     1.7196221	     12560.312
        513.00	     50.158488	     2.1286629	     12560.824
        514.00	     46.974292	     3.4349823	     12561.129
        515.00	     53.597772	     3.1044040	     12561.645
        516.00	     60.207208	     2.6575720	     12561.949
        517.00	     65.680329	     3.6586880	     12562.362
        518.00	     63.568501	     3.2452878	     12562.875
        519.00	     76.833162	     3.5250809	     12563.179
        520.00	     72.218321	     2.0376660	     12563.593
        521.00	     85.438364	     3.6700715	     12564.105
        522.00	     102.94380	     3.2621942	     12564.410
        523.00	     112.84658	     3.6096003	     12564.823
        524.00	     127.19010	     4.1677346	     12565.336
        525.00	     135.44904	     3.3403212	     12565.848
        526.00	     146.05844	     3.5636600	     12566.361
        527.00	     165.64686	     5.6269898	     12566.665
        528.00	     184.82549	     4.6195675	     12567.078
        529.00	     201.51450	     5.3816617	     12567.591
        530.00	     228.01757	     6.0921397	     12567.896
        531.00	     265.15689	     2.5434070	     12568.309
        532.00	     286.21522	     6.3004744	     12568.821
        533.00	     333.62807	     4.9692340	     12569.126
        534.00	     388.65106	     6.3882151	     12569.539
        535.00	     442.09363	     13.424628	     12570.052
        536.00	     531.53741	     17.719626	     12570.356
        537.00	     679.79246	     25.957182	     12570.660
        538.00	     978.31796	     7.5915817	     12571.074
        539.00	     1215.3772	     57.252556	     12571.593
        540.00	     1623.5984	     71.784762	     12571.897
        541.00	     2223.6544	     89.827345	     12572.202
        542.00	     3121.9614	     16.396251	     12572.615
        543.00	     3673.7477	     130.24623	     12573.134
        544.00	     4630.1844	     153.50591	     12573.438
        545.00	     5675.2763	     146.81797	     12573.743
        546.00	     7227.6091	     19.201555	     12574.156
        547.00	     7972.3002	     194.20049	     12574.675
        548.00	     9264.2831	     182.43906	     12574.979
        549.00	     10539.149	     161.83661	     12575.284
        550.00	     12242.529	     25.488445	     12575.697
        551.00	     13024.521	     178.84956	     12576.216
        552.00	     14297.274	     186.27997	     12576.520
        553.00	     15480.314	     141.83903	     12576.825
        554.00	     17135.618	     38.850937	     12577.238
        555.00	     17981.555	     157.79717	     12577.757
        556.00	     18396.411	     98.549541	     12578.061
        557.00	     18801.171	     49.959111	     12578.365
        558.00	     19089.136	     33.367268	     12578.779
        559.00	     19217.428	     35.726561	     12579.298
        560.00	     19513.554	     72.206431	     12579.602
        561.00	     18791.197	     96.151470	     12579.907
        562.00	     17804.291	     56.768053	     12580.320
        563.00	     17476.167	     141.30301	     12580.839
        564.00	     16645.369	     181.65547	     12581.143
        565.00	     15396.504	     140.15955	     12581.448
        566.00	     13969.224	     30.463876	     12581.861
        567.00	     13402.864	     208.02494	     12582.380
        568.00	     11969.990	     30.216581	     12582.685
        569.00	     10883.716	     27.055203	     12583.203
        570.00	     10307.598	     189.66230	     12583.716
        571.00	     9250.1752	     164.05001	     12584.020
        572.00	     8349.9379	     136.38413	     12584.324
        573.00	     7196.4310	     15.514518	     12584.738
        574.00	     6879.1584	     124.24736	     12585.257
        575.00	     6276.4904	     98.335503	     12585.561
        576.00	     5759.8820	     72.396801	     12585.866
        577.00	     5292.1118	     23.399625	     12586.279
        578.00	     5189.7991	     44.868198	     12586.798
        579.00	     4988.9698	     23.246419	     12587.102
        580.00	     4856.3013	     15.990679	     12587.407
        581.00	     4785.7976	     16.538085	     12587.820
        582.00	     4744.6681	     26.961280	     12588.338
        583.00	     4656.7134	     23.613640	     12588.643
        584.00	     4558.6679	     20.514116	     12588.948
        585.00	     4465.2117	     14.317619	     12589.361
        586.00	     4447.1170	     41.614048	     12589.880
        587.00	     4328.0039	     25.407193	     12590.184
        588.00	     4249.2066	     28.332468	     12590.489
        589.00	     4113.5566	     25.909242	     12590.902
        590.00	     4021.2316	     24.682846	     12591.421
        591.00	     3915.3175	     46.553635	     12591.725
        592.00	     3774.6979	     31.100620	     12592.029
        593.00	     3656.1671	     17.861905	     12592.443
        594.00	     3616.0070	     30.149651	     12592.962
        595.00	     3490.4627	     31.989657	     12593.266
        596.00	     3358.7108	     33.027439	     12593.571
        597.00	     3338.9855	     34.473841	     12593.984
        598.00	     3133.5522	     22.133153	     12594.288
        599.00	     3098.1130	     26.526906	     12594.810
        600.00	     3019.9933	     14.232302	     12595.115
        601.00	     2892.8090	     25.145769	     12595.419
        602.00	     2790.1440	     13.128192	     12595.833
        603.00	     2737.9847	     33.580898	     12596.351
        604.00	     2603.3119	     20.640519	     12596.656
        605.00	     2590.1493	     18.100046	     12597.174
        606.00	     2500.9621	     19.092696	     12597.479
        607.00	     2398.2843	     19.394734	     12597.892
        608.00	     2345.7955	     14.522099	     12598.408
        609.00	     2271.1623	     30.943955	     12598.713
        610.00	     2164.0576	     18.584652	     12599.126
        611.00	     2172.2656	     17.514522	     12599.638
        612.00	     2091.1234	     23.675103	     12599.943
        613.00	     2069.5549	     17.568313	     12600.247
        614.00	     1919.7938	     15.649762	     12600.661
        615.00	     1933.8170	     18.955508	     12601.180
        616.00	     1858.1005	     23.923873	     12601.695
        617.00	     1818.2043	     23.255825	     12602.000
        618.00	     1813.1793	     12.615056	     12602.304
        619.00	     1765.7143	     10.530821	     12602.624
        620.00	     1680.5435	     15.775520	     12603.037
        621.00	     1683.1923	     21.666315	     12603.547
        622.00	     1632.8938	     11.118923	     12603.851
        623.00	     1607.1968	     9.8943689	     12604.156
        624.00	     1543.4301	     12.281079	     12604.569
        625.00	     1506.9065	     22.108729	     12605.091
        626.00	     1451.0075	     18.244695	     12605.396
        627.00	     1456.8361	     14.933577	     12605.911
        628.00	     1418.5633	     18.390482	     12606.424
        629.00	     1366.6253	     14.760196	     12606.728
        630.00	     1351.6774	     16.834029	     12607.247
        631.00	     1352.2222	     21.011255	     12607.759
        632.00	     1310.2738	     11.294991	     12608.064
        633.00	     1242.9880	     13.038244	     12608.477
        634.00	     1219.1653	     9.1061567	     12608.993
        635.00	     1219.8279	     11.166170	     12609.509
        636.00	     1177.1580	     13.229578	     12609.813
        637.00	     1119.1621	     9.6373392	     12610.227
        638.00	     1156.3460	     12.820875	     12610.739
        639.00	     1080.7226	     13.015188	     12611.044
        640.00	     1051.1888	     11.238359	     12611.563
        641.00	     1050.0249	     18.784336	     12611.867
        642.00	     997.33228	     11.920585	     12612.280
        643.00	     978.66093	     14.805397	     12612.793
        644.00	     960.16485	     7.9317500	     12613.098
        645.00	     897.62851	     20.265102	     12613.616
        646.00	     898.27619	     16.804605	     12613.921
        647.00	     891.56726	     15.295508	     12614.436
        648.00	     837.57124	     17.601744	     12614.741
        649.00	     782.40368	     15.807586	     12615.260
        650.00	     776.49086	     17.012319	     12615.772
        651.00	     785.33235	     12.498998	     12616.077
        652.00	     771.37436	     9.1801770	     12616.381
        653.00	     729.80241	     8.5644915	     12616.794
        654.00	     699.27069	     13.917477	     12617.313
        655.00	     660.09358	     14.130837	     12617.618
        656.00	     667.66072	     13.263954	     12618.031
        657.00	     649.31144	     16.434195	     12618.544
        658.00	     613.58937	     15.350602	     12618.848
        659.00	     606.81205	     15.380882	     12619.364
        660.00	     583.08895	     6.8264542	     12619.668
        661.00	     527.07907	     14.659291	     12620.081
        662.00	     563.45682	     11.989357	     12620.594
        663.00	     537.26239	     13.391707	     12620.898
        664.00	     524.08884	     13.427275	     12621.312
        665.00	     507.87230	     11.576741	     12621.824
        666.00	     502.33117	     10.011762	     12622.129
        667.00	     507.41350	     10.921779	     12622.645
        668.00	     465.50264	     7.9532927	     12623.157
        669.00	     457.63837	     14.392472	     12623.462
        670.00	     432.04685	     18.264102	     12623.766
        671.00	     446.48872	     18.451534	     12624.179
        672.00	     424.66663	     7.8462881	     12624.698
        673.00	     434.49462	     8.9692642	     12625.003
        674.00	     404.22128	     12.655254	     12625.416
        675.00	     410.24382	     13.423951	     12625.928
        676.00	     363.73698	     18.218450	     12626.233
        677.00	     358.40733	     10.480026	     12626.646
        678.00	     365.36698	     19.631606	     12627.159
        679.00	     333.16879	     19.259257	     12627.464
        680.00	     342.03251	     20.080987	     12627.979
        681.00	     346.93839	     15.442318	     12628.284
        682.00	     318.98950	     15.059922	     12628.697
        683.00	     292.11131	     10.402337	     12629.210
        684.00	     275.28405	     15.065833	     12629.722
        685.00	     289.45232	     18.358808	     12630.027
        686.00	     288.42599	     15.569554	     12630.440
        687.00	     289.69019	     13.250856	     12630.952
        688.00	     273.32161	     12.496498	     12631.257
        689.00	     251.75584	     12.786617	     12631.561
        690.00	     257.77223	     9.6773608	     12631.975
        691.00	     242.93461	     12.268196	     12632.493
        692.00	     239.01657	     19.198734	     12633.006
        693.00	     243.77433	     20.536204	     12633.311
        694.00	     214.85957	     9.7320301	     12633.724
        695.00	     249.44302	     17.540469	     12634.236
        696.00	     229.44655	     10.661205	     12634.541
        697.00	     212.05527	     11.267401	     12634.845
        698.00	     209.45148	     21.907905	     12635.258
        699.00	     168.88792	     16.280970	     12635.777
        700.00	     236.61777	     20.571527	     12636.082
        701.00	     182.70047	     18.896703	     12636.386
        702.00	     191.49686	     13.983186	     12636.800
        703.00	     204.34054	     20.097091	     12637.318
        704.00	     172.10812	     14.437562	     12637.623
        705.00	     205.87889	     16.979739	     12637.927
        706.00	     177.18939	     14.468777	     12638.340
        707.00	     205.54724	     19.059873	     12638.859
        708.00	     181.50010	     9.9465465	     12639.164
        709.00	     159.34241	     12.392911	     12639.683
        710.00	     157.57499	     14.448696	     12640.195
        711.00	     182.72950	     11.580985	     12640.500
        712.00	     170.94463	     18.489522	     12641.019
        713.00	     189.64565	     15.972622	     12641.323
        714.00	     154.20851	     21.330127	     12641.736
        715.00	     162.29344	     25.190238	     12642.249
        716.00	     126.42018	     18.692662	     12642.553
        717.00	     100.47915	     11.441725	     12642.967
        718.00	     149.51505	     22.671076	     12643.479
        719.00	     103.61761	     14.824264	     12643.992
        720.00	     124.67435	     19.339090	     12644.504
        721.00	     158.39108	     28.246520	     12644.809
        722.00	     108.54514	     19.494698	     12645.325
        723.00	     130.62885	     11.455530	     12645.630
        724.00	     148.42570	     11.367379	     12646.145
        725.00	     150.70882	     20.078094	     12646.658
        726.00	     115.16416	     22.014936	     12646.962
        727.00	     100.63720	     15.614869	     12647.478
        728.00	     129.91893	     17.615113	     12647.782
        729.00	     127.76571	     15.200577	     12648.087
        730.00	     126.00736	     25.334291	     12648.500
        731.00	     187.38411	     17.219485	     12649.019
        732.00	     98.454017	     18.872146	     12649.532
        733.00	     161.46029	     17.605290	     12650.044
        734.00	     131.59709	     24.598489	     12650.557
        735.00	     90.506750	     14.636449	     12650.861
        736.00	     112.54885	     26.024111	     12651.274
        737.00	     74.189040	     23.221826	     12651.790
        738.00	     149.77968	     36.850286	     12652.094
        739.00	     115.11907	     28.931855	     12652.508
        740.00	     147.37544	     25.258960	     12653.021
        741.00	     120.70393	     26.086237	     12653.536
        742.00	     75.232563	     17.783595	     12654.049
        743.00	     85.483954	     22.614120	     12654.353
        744.00	     116.74340	     26.746760	     12654.658
        745.00	     83.056536	     18.257762	     12655.071
        746.00	     22.358123	     26.639938	     12655.590
        747.00	     68.380451	     33.052574	     12655.894
        748.00	     42.388276	     23.827409	     12656.413
        749.00	     121.77907	     31.708214	     12656.717
        750.00	     80.793439	     33.206742	     12657.131
        751.00	     81.770886	     17.964489	     12657.643
        752.00	     133.98606	     41.546103	     12657.948
        753.00	     81.241269	     27.932740	     12658.361
        754.00	     95.416895	     34.334149	     12658.874
        755.00	     107.08057	     18.949030	     12659.178
        756.00	     84.405617	     23.175734	     12659.483
        757.00	     41.845816	     28.426813	     12659.896
        758.00	     50.797485	     34.628586	     12660.414
        759.00	     70.968142	     29.525108	     12660.722
        760.00	     18.116425	     29.296098	     12661.235
        761.00	     101.56822	     16.702567	     12661.748
        762.00	     88.076738	     38.870837	     12662.052
        763.00	     65.624450	     28.571516	     12662.465
        764.00	     66.457241	     31.522445	     12662.978
        765.00	     67.211358	     32.501646	     12663.490
        766.00	     122.74210	     33.588241	     12663.795
        767.00	     68.862930	     24.593904	     12664.208
        768.00	     60.319044	     37.497411	     12664.721
        769.00	     32.672129	     41.624725	     12665.025
        770.00	     106.24578	     41.080365	     12665.330
        771.00	     97.705109	     53.566397	     12665.743
        772.00	     111.58976	     33.222373	     12666.262
        773.00	     178.57355	     44.902242	     12666.566
        774.00	     114.09497	     44.278101	     12666.979
        775.00	     175.86323	     23.889382	     12667.492
        776.00	     86.072542	     30.831013	     12668.005
        777.00	     52.749327	     35.833816	     12668.309
        778.00	     153.43308	     53.087472	     12668.613
        779.00	     95.831344	     44.255551	     12669.027
        780.00	     185.13549	     47.635286	     12669.546
        781.00	     33.570974	     34.687155	     12669.850
        782.00	     77.149834	     35.425000	     12670.155
        783.00	     48.889999	     38.477869	     12670.568
        784.00	     119.40899	     64.492672	     12671.087
        785.00	     64.681028	     54.871295	     12671.391
        786.00	     140.22932	     39.542399	     12671.696
        787.00	     69.662577	     31.322096	     12672.109
        788.00	     97.037409	     46.354528	     12672.628
        789.00	     151.78534	     42.763980	     12672.932
        790.00	     28.739753	     48.109063	     12673.237
        791.00	    -2.3529848	     28.906868	     12673.759
        792.00	     37.172629	     48.772599	     12674.063
        793.00	     49.448338	     34.560667	     12674.368
        794.00	     105.60000	     48.880807	     12674.781
        795.00	     116.75939	     46.784766	     12675.300
        796.00	     75.927400	     32.719064	     12675.604
        797.00	     85.453242	     39.726854	     12676.017
        798.00	     27.225829	     39.947153	     12676.533
        799.00	     87.445897	     40.757247	     12676.838
        800.00	     22.583762	     24.220215	     12677.353
