Title=200220_em_MeCN_2,0uM_Flu
Comment=
Signature=ISS_Experiment_Ver_1_0
Timestamp=Thu Feb 20 13:42:17 2020
Product=Vinci2
SoftwareVersion=BETA.2.4
BuildNumber=234
RealTimeStart=4198.28252764

AcquisitionType=Photon Counting
AcquisitionFormat=L
AcquisitionSide=Right
Detector Gains=(0.0, 0.0)

Measurable=Intensity
MaxIterations=10

RightEmissionWavelengthBandwidth=8.0
ExcitationWavelengthBandwidth=8.0
Visualization=Y:Intensity,X:EmissionWavelength,PlotType:2D


EmissionWavelength=type:numeric,unit:nm,from:400.0,to:700.0,step:1.0
ExcitationWavelength=type:numeric,unit:nm,fixed:499.0

Space=EmissionWavelength
Columns=EmissionWavelength,Intensity,IntensityStdError,RealTime
[Data]
        400.00	     45.694256	     3.4348283	     4201.7826
        401.00	     49.364292	     4.2270611	     4202.3792
        402.00	     49.641590	     3.3669229	     4202.6837
        403.00	     50.990699	     5.7119648	     4203.0967
        404.00	     46.368522	     5.0447195	     4203.6094
        405.00	     50.855268	     7.4831897	     4203.9139
        406.00	     49.580599	     3.4696644	     4204.3271
        407.00	     56.679685	     3.6924550	     4204.8398
        408.00	     58.865940	     4.0381826	     4205.1440
        409.00	     57.323853	     4.8169521	     4205.5575
        410.00	     69.737923	     6.2301510	     4206.0701
        411.00	     55.076763	     4.8178054	     4206.3748
        412.00	     63.766283	     3.6903240	     4206.8903
        413.00	     59.645309	     5.3898952	     4207.1946
        414.00	     54.774246	     4.5083457	     4207.4990
        415.00	     62.412538	     7.1695176	     4207.9124
        416.00	     56.058058	     5.1977776	     4208.2169
        417.00	     54.969571	     5.9496541	     4208.7390
        418.00	     59.605061	     5.4454069	     4209.0433
        419.00	     66.508269	     4.5025196	     4209.4565
        420.00	     65.499970	     3.4357495	     4209.9692
        421.00	     56.951083	     5.9395816	     4210.2737
        422.00	     72.345545	     6.0863043	     4210.5782
        423.00	     67.031287	     7.2162501	     4210.9914
        424.00	     68.971677	     5.3525692	     4211.5104
        425.00	     61.204682	     4.0574960	     4212.0229
        426.00	     62.068385	     3.7174373	     4212.3274
        427.00	     63.469035	     4.6040901	     4212.7405
        428.00	     63.586966	     5.8799915	     4213.2532
        429.00	     62.562217	     4.0879388	     4213.5578
        430.00	     69.452134	     3.0266969	     4214.0733
        431.00	     67.759131	     5.2572426	     4214.3780
        432.00	     47.984823	     4.3261991	     4214.7910
        433.00	     54.023698	     7.4843092	     4215.3037
        434.00	     62.464269	     6.6038911	     4215.6082
        435.00	     71.794661	     4.2154746	     4215.9126
        436.00	     62.022484	     4.5330950	     4216.3258
        437.00	     65.032375	     7.0061683	     4216.8447
        438.00	     52.157899	     7.9595789	     4217.1489
        439.00	     59.949738	     6.1948256	     4217.4536
        440.00	     69.871861	     2.1194913	     4217.8668
        441.00	     62.870837	     3.3280176	     4218.3858
        442.00	     63.955698	     7.2698406	     4218.6905
        443.00	     68.361756	     5.1313725	     4219.2089
        444.00	     67.364431	     5.6646333	     4219.5137
        445.00	     78.217346	     9.1285522	     4220.0293
        446.00	     83.549998	     4.7186562	     4220.3337
        447.00	     87.637881	     2.3164279	     4220.7469
        448.00	     99.446990	     7.1498160	     4221.2593
        449.00	     88.221348	     4.3395552	     4221.5640
        450.00	     116.01870	     6.1032168	     4221.9772
        451.00	     115.45044	     5.0926712	     4222.4900
        452.00	     136.98589	     7.7003733	     4222.7944
        453.00	     155.24789	     6.4141805	     4223.2073
        454.00	     150.59271	     6.0958729	     4223.5119
        455.00	     174.95709	     6.6940049	     4224.0276
        456.00	     182.92205	     9.5052937	     4224.3324
        457.00	     205.52904	     8.6481441	     4224.8511
        458.00	     218.94279	     7.3271784	     4225.1555
        459.00	     241.05021	     6.7525229	     4225.5687
        460.00	     244.38987	     9.0579627	     4226.0812
        461.00	     257.70185	     6.6420847	     4226.3862
        462.00	     285.94873	     10.528688	     4226.9048
        463.00	     285.13959	     10.234583	     4227.2089
        464.00	     283.11517	     6.0146159	     4227.5134
        465.00	     306.51254	     8.7543421	     4227.9268
        466.00	     319.23637	     5.6521413	     4228.4455
        467.00	     328.81196	     10.705798	     4228.7505
        468.00	     349.42889	     8.8546160	     4229.2657
        469.00	     342.44412	     15.342897	     4229.5704
        470.00	     358.62096	     9.6352733	     4229.9836
        471.00	     377.05951	     6.7465489	     4230.4962
        472.00	     377.89329	     6.5944719	     4230.8011
        473.00	     369.32589	     8.4270199	     4231.3165
        474.00	     393.72700	     12.397995	     4231.6208
        475.00	     406.25011	     8.5035666	     4232.0341
        476.00	     459.73492	     13.150665	     4232.5468
        477.00	     615.78645	     15.143604	     4232.8514
        478.00	     873.87182	     63.858528	     4233.3699
        479.00	     1603.5059	     145.55525	     4233.6743
        480.00	     3583.6425	     20.216517	     4234.0877
        481.00	     5061.3744	     373.54141	     4234.6005
        482.00	     7762.5799	     433.11413	     4234.9051
        483.00	     12484.477	     20.383276	     4235.3180
        484.00	     14837.961	     576.42097	     4235.8306
        485.00	     19239.541	     690.12720	     4236.1352
        486.00	     24302.069	     773.76188	     4236.4396
        487.00	     31779.728	     70.997890	     4236.8528
        488.00	     35202.099	     863.34701	     4237.3717
        489.00	     40546.105	     825.13405	     4237.6760
        490.00	     48094.821	     105.80025	     4238.0894
        491.00	     51474.901	     770.20148	     4238.6021
        492.00	     56650.585	     757.34481	     4238.9065
        493.00	     63333.295	     147.29874	     4239.3197
        494.00	     65818.760	     640.61869	     4239.8321
        495.00	     70849.625	     140.08457	     4240.1372
        496.00	     72332.657	     382.23830	     4240.6557
        497.00	     74456.407	     212.64512	     4240.9599
        498.00	     75298.366	     112.90366	     4241.3734
        499.00	     76576.640	     240.24284	     4241.8888
        500.00	     76612.212	     346.96200	     4242.1938
        501.00	     75120.193	     139.95961	     4242.6067
        502.00	     73980.182	     658.94779	     4243.1194
        503.00	     71294.768	     780.22750	     4243.4238
        504.00	     65368.379	     174.13812	     4243.8370
        505.00	     63412.588	     1049.9587	     4244.3497
        506.00	     57862.790	     969.04838	     4244.6542
        507.00	     51919.782	     978.58162	     4244.9587
        508.00	     43529.444	     69.303645	     4245.3718
        509.00	     39635.562	     1004.5419	     4245.8904
        510.00	     33730.865	     923.53490	     4246.1951
        511.00	     27430.438	     875.88607	     4246.4996
        512.00	     20446.113	     91.830543	     4246.9128
        513.00	     18028.063	     668.64267	     4247.4318
        514.00	     14215.230	     481.13469	     4247.7360
        515.00	     10439.756	     43.473290	     4248.0408
        516.00	     9311.1153	     299.24087	     4248.5627
        517.00	     7581.4036	     223.38300	     4248.8672
        518.00	     5732.2160	     37.615481	     4249.2803
        519.00	     5315.6646	     123.88113	     4249.7958
        520.00	     4558.9382	     81.438932	     4250.1004
        521.00	     4131.3971	     22.349560	     4250.5137
        522.00	     4165.7021	     13.733787	     4251.0264
        523.00	     4220.1174	     35.753421	     4251.3312
        524.00	     4414.6568	     47.825659	     4251.8497
        525.00	     4534.2367	     44.013167	     4252.1540
        526.00	     4718.0172	     33.507215	     4252.5673
        527.00	     4898.5043	     53.669224	     4253.0832
        528.00	     5013.7567	     49.349655	     4253.3875
        529.00	     5290.4708	     29.368972	     4253.8007
        530.00	     5385.0195	     61.224953	     4254.3131
        531.00	     5563.5023	     43.619891	     4254.6183
        532.00	     5717.9499	     44.852009	     4255.1366
        533.00	     5926.7422	     34.301488	     4255.4415
        534.00	     5958.5660	     29.876385	     4255.9570
        535.00	     6062.4395	     42.778404	     4256.4697
        536.00	     6241.3654	     38.087455	     4256.9823
        537.00	     6330.4818	     40.832137	     4257.2868
        538.00	     6378.6498	     38.997382	     4257.8025
        539.00	     6434.8176	     19.773892	     4258.1069
        540.00	     6493.7250	     38.244167	     4258.5200
        541.00	     6555.2637	     28.789789	     4259.0328
        542.00	     6576.9265	     53.041028	     4259.5454
        543.00	     6531.9620	     53.372746	     4259.8498
        544.00	     6607.5919	     41.104250	     4260.1543
        545.00	     6581.0137	     67.629730	     4260.5672
        546.00	     6547.5173	     35.592268	     4260.8719
        547.00	     6604.6065	     42.307005	     4261.3970
        548.00	     6562.2654	     29.210282	     4261.7018
        549.00	     6458.5629	     43.016156	     4262.2174
        550.00	     6470.7820	     30.117417	     4262.7296
        551.00	     6263.6734	     43.541057	     4263.0347
        552.00	     6322.1276	     19.399886	     4263.5499
        553.00	     6269.2041	     21.838879	     4263.8548
        554.00	     6141.7214	     43.711831	     4264.3703
        555.00	     6061.0385	     49.946892	     4264.6745
        556.00	     5959.0682	     62.786277	     4265.0880
        557.00	     5836.7567	     29.225125	     4265.6007
        558.00	     5780.5620	     46.467893	     4266.1133
        559.00	     5778.1248	     55.895954	     4266.6259
        560.00	     5690.3057	     64.445968	     4266.9304
        561.00	     5461.5209	     21.020419	     4267.3435
        562.00	     5392.9642	     33.297790	     4267.8562
        563.00	     5383.3256	     46.571433	     4268.1609
        564.00	     5140.2539	     49.818049	     4268.5736
        565.00	     5187.0135	     53.650858	     4269.0865
        566.00	     4992.4609	     23.010381	     4269.3913
        567.00	     4997.2828	     48.501726	     4269.9068
        568.00	     4843.4164	     55.363257	     4270.2114
        569.00	     4717.6608	     53.066324	     4270.5156
        570.00	     4555.9271	     39.634391	     4270.9290
        571.00	     4562.9316	     40.847926	     4271.4476
        572.00	     4428.3704	     49.443805	     4271.7523
        573.00	     4367.5283	     41.164050	     4272.1654
        574.00	     4294.2430	     48.406350	     4272.6778
        575.00	     4172.9365	     34.973646	     4272.9827
        576.00	     4147.2461	     36.133285	     4273.4982
        577.00	     3961.1230	     50.734263	     4273.8026
        578.00	     3948.4045	     28.019943	     4274.1073
        579.00	     4005.0124	     48.479366	     4274.6289
        580.00	     3839.4905	     32.075794	     4274.9336
        581.00	     3700.6499	     53.309339	     4275.3468
        582.00	     3665.8959	     48.457383	     4275.8595
        583.00	     3631.9441	     33.204651	     4276.1639
        584.00	     3555.9909	     30.831977	     4276.5771
        585.00	     3411.5673	     44.946645	     4277.0898
        586.00	     3451.2769	     48.995406	     4277.3944
        587.00	     3324.6397	     34.906172	     4277.6988
        588.00	     3253.7339	     39.971116	     4278.1119
        589.00	     3202.3351	     36.334043	     4278.6306
        590.00	     3121.0564	     24.677312	     4278.9354
        591.00	     3078.3999	     55.135186	     4279.2398
        592.00	     2912.5505	     54.044862	     4279.7617
        593.00	     2927.7368	     34.722855	     4280.0662
        594.00	     2849.6217	     47.772735	     4280.3705
        595.00	     2784.2569	     39.946926	     4280.7837
        596.00	     2751.7551	     52.329603	     4281.3025
        597.00	     2670.2221	     59.529384	     4281.6073
        598.00	     2591.4768	     27.001494	     4282.1230
        599.00	     2515.3492	     21.376941	     4282.6353
        600.00	     2433.4424	     16.920830	     4282.9431
        601.00	     2428.5012	     15.951655	     4283.4557
        602.00	     2290.9060	     35.491015	     4283.7600
        603.00	     2267.8425	     31.712178	     4284.0647
        604.00	     2149.7216	     29.910502	     4284.4778
        605.00	     2117.8704	     50.614638	     4284.9966
        606.00	     2056.0893	     29.016109	     4285.3010
        607.00	     2085.7899	     38.737755	     4285.6058
        608.00	     1951.5948	     21.713818	     4286.1276
        609.00	     1957.7987	     40.639393	     4286.4318
        610.00	     1938.1649	     40.507678	     4286.7364
        611.00	     1803.1082	     34.490741	     4287.1528
        612.00	     1815.7714	     35.588917	     4287.6686
        613.00	     1691.3203	     23.250642	     4287.9733
        614.00	     1683.6280	     34.105840	     4288.4886
        615.00	     1714.9700	     42.045215	     4288.7935
        616.00	     1561.9592	     34.935801	     4289.2065
        617.00	     1617.6911	     34.770558	     4289.7190
        618.00	     1555.3317	     44.395022	     4290.0239
        619.00	     1574.8430	     20.829064	     4290.5394
        620.00	     1511.8442	     22.340419	     4290.8440
        621.00	     1502.7734	     37.048258	     4291.1483
        622.00	     1439.1563	     25.819404	     4291.5615
        623.00	     1367.0746	     33.890794	     4292.0802
        624.00	     1331.7146	     39.782055	     4292.3849
        625.00	     1289.5327	     29.413895	     4292.6895
        626.00	     1290.6490	     27.105874	     4293.2114
        627.00	     1230.7391	     22.295999	     4293.7241
        628.00	     1185.6008	     36.957619	     4294.0288
        629.00	     1218.1401	     38.122689	     4294.5442
        630.00	     1179.6038	     26.506697	     4294.8488
        631.00	     1208.9342	     25.237699	     4295.2617
        632.00	     1134.3030	     39.589036	     4295.7743
        633.00	     1058.3567	     27.758834	     4296.0787
        634.00	     1074.4942	     34.509026	     4296.4919
        635.00	     1079.2911	     26.144159	     4297.0049
        636.00	     993.35239	     30.291770	     4297.5174
        637.00	     999.55035	     30.465743	     4297.8218
        638.00	     1011.7691	     32.670749	     4298.1261
        639.00	     969.43796	     24.794721	     4298.5393
        640.00	     946.61110	     41.192259	     4299.0582
        641.00	     954.42233	     25.895315	     4299.3630
        642.00	     838.81664	     28.891037	     4299.8815
        643.00	     898.08144	     30.162744	     4300.1865
        644.00	     827.47769	     32.541208	     4300.7016
        645.00	     834.40827	     34.195447	     4301.0061
        646.00	     803.55801	     36.747582	     4301.4195
        647.00	     812.24417	     32.451790	     4301.9321
        648.00	     763.58182	     29.508589	     4302.2371
        649.00	     754.45948	     25.984010	     4302.7525
        650.00	     770.28127	     34.126972	     4303.0566
        651.00	     702.94270	     26.828829	     4303.4701
        652.00	     706.45746	     54.433599	     4303.9827
        653.00	     666.36444	     40.021870	     4304.2871
        654.00	     701.56595	     23.283819	     4304.5917
        655.00	     619.37183	     35.731442	     4305.0046
        656.00	     626.15285	     31.467739	     4305.5238
        657.00	     677.32846	     35.341161	     4305.8281
        658.00	     583.28747	     36.124295	     4306.1326
        659.00	     567.19197	     28.275292	     4306.5458
        660.00	     650.33309	     32.785163	     4307.0645
        661.00	     510.57546	     28.996032	     4307.3690
        662.00	     546.84735	     29.405889	     4307.6736
        663.00	     525.15650	     39.858912	     4308.0868
        664.00	     577.51300	     43.890275	     4308.6057
        665.00	     551.62230	     46.914692	     4308.9106
        666.00	     468.93336	     23.304149	     4309.4259
        667.00	     492.87267	     28.967536	     4309.7305
        668.00	     504.26684	     30.126640	     4310.1436
        669.00	     451.74533	     46.469202	     4310.6561
        670.00	     478.83087	     43.935314	     4310.9605
        671.00	     449.07003	     33.086789	     4311.2651
        672.00	     363.78901	     26.343680	     4311.6784
        673.00	     436.18952	     36.569308	     4312.1975
        674.00	     442.65904	     34.845234	     4312.7098
        675.00	     364.02243	     32.992970	     4313.0141
        676.00	     388.43239	     35.550869	     4313.4275
        677.00	     360.60996	     24.980783	     4313.9402
        678.00	     403.20564	     36.876967	     4314.2446
        679.00	     353.94826	     32.827867	     4314.6579
        680.00	     391.13449	     37.315915	     4315.1707
        681.00	     349.70943	     39.249011	     4315.4750
        682.00	     296.93381	     28.033141	     4315.8882
        683.00	     394.25111	     26.116277	     4316.4007
        684.00	     255.31129	     43.873677	     4316.7055
        685.00	     374.33118	     40.064865	     4317.2210
        686.00	     311.44929	     51.151527	     4317.5253
        687.00	     296.34406	     42.377024	     4317.9388
        688.00	     371.11300	     57.924726	     4318.4514
        689.00	     288.53058	     33.198817	     4318.7557
        690.00	     265.60409	     28.504823	     4319.0601
        691.00	     283.72954	     56.455581	     4319.4735
        692.00	     312.61624	     46.319266	     4319.9923
        693.00	     382.05845	     41.738200	     4320.2969
        694.00	     406.69557	     49.893832	     4320.6011
        695.00	     320.29934	     43.794126	     4321.0148
        696.00	     227.33278	     32.328676	     4321.5332
        697.00	     326.06196	     57.327372	     4321.8380
        698.00	     234.12729	     43.318858	     4322.1426
        699.00	     245.71253	     57.752945	     4322.6642
        700.00	     245.60000	     48.460752	     4322.9689
