Title=200220_em_NaOH-MeCN_2,0uM_Rho6G
Comment=
Signature=ISS_Experiment_Ver_1_0
Timestamp=Thu Feb 20 20:57:26 2020
Product=Vinci2
SoftwareVersion=BETA.2.4
BuildNumber=234
RealTimeStart=12311.4132402

AcquisitionType=Photon Counting
AcquisitionFormat=L
AcquisitionSide=Right
Detector Gains=(0.0, 0.0)

Measurable=Intensity
MaxIterations=10

RightEmissionWavelengthBandwidth=8.0
ExcitationWavelengthBandwidth=8.0
Visualization=Y:Intensity,X:EmissionWavelength,PlotType:2D


EmissionWavelength=type:numeric,unit:nm,from:400.0,to:800.0,step:1.0
ExcitationWavelength=type:numeric,unit:nm,fixed:524.0

Space=EmissionWavelength
Columns=EmissionWavelength,Intensity,IntensityStdError,RealTime
[Data]
        400.00	     296.60380	     3.0214587	     12314.283
        401.00	     293.59552	     3.2759715	     12314.848
        402.00	     303.64404	     3.0357988	     12315.153
        403.00	     292.78620	     4.2080919	     12315.457
        404.00	     299.65085	     3.0637643	     12315.871
        405.00	     296.79522	     2.8073554	     12316.389
        406.00	     297.32623	     3.5796655	     12316.694
        407.00	     299.34261	     3.5250403	     12316.998
        408.00	     306.55756	     2.3050577	     12317.411
        409.00	     302.51024	     5.0441110	     12317.930
        410.00	     305.57535	     4.5285937	     12318.235
        411.00	     302.22390	     2.1232225	     12318.539
        412.00	     312.48869	     4.3664319	     12318.952
        413.00	     307.94193	     3.4433417	     12319.471
        414.00	     310.46005	     4.8889080	     12319.776
        415.00	     312.34212	     3.5637568	     12320.080
        416.00	     316.77468	     4.6697401	     12320.493
        417.00	     317.37445	     2.9449696	     12321.012
        418.00	     318.35762	     3.5018970	     12321.317
        419.00	     325.05538	     2.6726993	     12321.621
        420.00	     323.29495	     3.2447239	     12322.034
        421.00	     333.55950	     2.1972002	     12322.339
        422.00	     326.64325	     3.7014441	     12322.659
        423.00	     339.12209	     3.5599915	     12323.172
        424.00	     346.06169	     3.9437427	     12323.476
        425.00	     351.94331	     1.4132552	     12323.889
        426.00	     358.04689	     6.1562109	     12324.402
        427.00	     365.37581	     5.2612442	     12324.706
        428.00	     369.08361	     3.8223495	     12325.120
        429.00	     379.92575	     3.8801478	     12325.632
        430.00	     383.68646	     4.4948294	     12325.937
        431.00	     394.42548	     2.1431017	     12326.452
        432.00	     399.83515	     2.1875403	     12326.757
        433.00	     408.94528	     2.8911232	     12327.170
        434.00	     420.24712	     4.7557524	     12327.683
        435.00	     427.97598	     4.5585208	     12327.987
        436.00	     427.26913	     4.9086135	     12328.506
        437.00	     431.08934	     3.4486664	     12328.811
        438.00	     441.31533	     6.6525912	     12329.224
        439.00	     451.43626	     4.1587080	     12329.736
        440.00	     460.61043	     4.9870358	     12330.041
        441.00	     459.29667	     4.8361494	     12330.454
        442.00	     472.54449	     5.7726412	     12330.759
        443.00	     479.84598	     4.9784030	     12331.274
        444.00	     488.50887	     3.2779787	     12331.579
        445.00	     500.76813	     6.6273344	     12332.097
        446.00	     513.26606	     3.8229606	     12332.402
        447.00	     525.44728	     3.6590907	     12332.918
        448.00	     519.92746	     6.1478546	     12333.222
        449.00	     537.77411	     6.0521867	     12333.635
        450.00	     536.11410	     5.2853482	     12334.148
        451.00	     543.49578	     4.3035279	     12334.453
        452.00	     564.01345	     3.3966444	     12334.866
        453.00	     553.85336	     4.0598526	     12335.378
        454.00	     576.48265	     4.0701843	     12335.683
        455.00	     577.16612	     4.1735306	     12336.096
        456.00	     576.93199	     4.8966031	     12336.609
        457.00	     599.01736	     4.6070022	     12336.913
        458.00	     605.83259	     4.1020053	     12337.218
        459.00	     610.08067	     3.4037424	     12337.631
        460.00	     617.94655	     6.6740491	     12338.150
        461.00	     634.16211	     5.0896464	     12338.454
        462.00	     644.22324	     6.9334782	     12338.973
        463.00	     655.88451	     5.5021483	     12339.278
        464.00	     655.71899	     7.1783161	     12339.691
        465.00	     655.86043	     6.6009691	     12340.203
        466.00	     685.47413	     4.3758151	     12340.508
        467.00	     691.51564	     4.8996724	     12341.023
        468.00	     695.28271	     5.7777844	     12341.328
        469.00	     722.46774	     5.8199896	     12341.741
        470.00	     729.44664	     5.9675253	     12342.254
        471.00	     760.34405	     7.7040010	     12342.559
        472.00	     773.41439	     6.6140461	     12343.074
        473.00	     781.57453	     5.3772521	     12343.379
        474.00	     813.71129	     5.8870989	     12343.792
        475.00	     830.79167	     9.9988604	     12344.304
        476.00	     874.22115	     8.2874817	     12344.609
        477.00	     899.87782	     8.7810703	     12345.124
        478.00	     921.33337	     10.365462	     12345.429
        479.00	     973.48774	     8.4907968	     12345.842
        480.00	     1037.6127	     6.3021151	     12346.358
        481.00	     1062.3873	     8.5997085	     12346.871
        482.00	     1130.5906	     9.0431534	     12347.175
        483.00	     1226.7445	     6.2614693	     12347.588
        484.00	     1259.6151	     18.770202	     12348.101
        485.00	     1379.2505	     15.260606	     12348.406
        486.00	     1530.2183	     8.9113732	     12348.819
        487.00	     1609.3245	     22.679879	     12349.331
        488.00	     1745.3955	     23.199841	     12349.636
        489.00	     1905.8304	     26.349841	     12349.940
        490.00	     2173.6146	     9.0669754	     12350.353
        491.00	     2320.6026	     38.870205	     12350.872
        492.00	     2562.1546	     42.620367	     12351.177
        493.00	     2977.1851	     8.4349162	     12351.481
        494.00	     3172.4517	     53.250245	     12352.003
        495.00	     3528.8019	     52.946108	     12352.307
        496.00	     4122.1639	     19.637193	     12352.721
        497.00	     4518.7962	     84.506663	     12353.233
        498.00	     5164.1335	     99.171143	     12353.538
        499.00	     6272.5208	     20.609851	     12353.951
        500.00	     7049.6044	     144.85956	     12354.464
        501.00	     8733.7118	     22.331264	     12354.769
        502.00	     9842.2849	     224.11432	     12355.284
        503.00	     11859.315	     269.03466	     12355.588
        504.00	     15138.140	     23.947112	     12356.002
        505.00	     18513.016	     29.294390	     12356.515
        506.00	     22812.526	     41.397707	     12357.027
        507.00	     26159.630	     752.46326	     12357.539
        508.00	     31994.107	     925.42130	     12357.844
        509.00	     41549.417	     39.190878	     12358.257
        510.00	     46893.213	     1304.7593	     12358.773
        511.00	     56343.140	     1509.6221	     12359.077
        512.00	     63201.742	     1595.8323	     12359.490
        513.00	     81920.962	     58.681067	     12359.795
        514.00	     93847.341	     57.594037	     12360.314
        515.00	     101340.90	     1937.6477	     12360.827
        516.00	     118035.72	     94.293711	     12361.131
        517.00	     124943.40	     1848.5825	     12361.650
        518.00	     135593.05	     1623.9250	     12361.955
        519.00	     147831.62	     71.458125	     12362.368
        520.00	     151449.22	     1102.8376	     12362.880
        521.00	     157236.84	     870.80119	     12363.185
        522.00	     161854.46	     593.48894	     12363.489
        523.00	     166190.21	     29.037610	     12363.902
        524.00	     167861.01	     421.15160	     12364.421
        525.00	     170577.34	     43.260349	     12364.726
        526.00	     171832.02	     289.42913	     12365.244
        527.00	     173473.44	     242.98092	     12365.549
        528.00	     175604.96	     54.469993	     12365.962
        529.00	     176733.99	     45.567347	     12366.478
        530.00	     177566.07	     82.625508	     12366.991
        531.00	     178521.45	     95.219633	     12367.295
        532.00	     179868.19	     28.060039	     12367.708
        533.00	     180818.27	     82.109776	     12368.221
        534.00	     181932.47	     48.242928	     12368.526
        535.00	     182774.78	     54.775118	     12369.041
        536.00	     183960.24	     65.179998	     12369.346
        537.00	     185123.64	     47.969658	     12369.759
        538.00	     186235.35	     45.825243	     12370.272
        539.00	     187366.51	     45.097458	     12370.579
        540.00	     188582.90	     76.469767	     12371.092
        541.00	     189894.91	     37.799285	     12371.396
        542.00	     190980.12	     57.572923	     12371.701
        543.00	     192185.95	     59.777968	     12372.114
        544.00	     193460.61	     49.270721	     12372.633
        545.00	     194623.54	     22.288895	     12372.937
        546.00	     196101.47	     56.675617	     12373.242
        547.00	     197203.21	     42.083662	     12373.655
        548.00	     198550.47	     35.179328	     12374.174
        549.00	     200108.29	     51.694651	     12374.478
        550.00	     201393.96	     49.368245	     12374.783
        551.00	     202511.36	     44.135276	     12375.304
        552.00	     203885.01	     45.225186	     12375.609
        553.00	     205414.99	     36.745543	     12376.125
        554.00	     206615.96	     33.341919	     12376.429
        555.00	     208163.89	     61.994449	     12376.843
        556.00	     209488.59	     38.921185	     12377.355
        557.00	     211106.02	     40.903438	     12377.660
        558.00	     212568.96	     37.007298	     12378.176
        559.00	     214308.93	     92.149261	     12378.480
        560.00	     215450.53	     56.326306	     12378.893
        561.00	     217054.05	     58.490408	     12379.405
        562.00	     218729.71	     61.437518	     12379.710
        563.00	     220033.51	     72.113622	     12380.015
        564.00	     221683.99	     76.417222	     12380.537
        565.00	     223280.53	     67.033807	     12380.841
        566.00	     225117.20	     29.676916	     12381.254
        567.00	     226575.29	     60.870615	     12381.767
        568.00	     228166.54	     58.859011	     12382.072
        569.00	     230131.03	     66.638298	     12382.587
        570.00	     231455.43	     67.191734	     12382.892
        571.00	     232976.97	     73.727859	     12383.305
        572.00	     234688.01	     60.447511	     12383.818
        573.00	     236641.43	     87.175654	     12384.330
        574.00	     237964.45	     56.658816	     12384.635
        575.00	     240072.38	     87.335867	     12385.150
        576.00	     241340.72	     59.216073	     12385.455
        577.00	     242948.81	     30.911285	     12385.868
        578.00	     244724.14	     46.369571	     12386.381
        579.00	     246463.87	     52.624261	     12386.685
        580.00	     248466.87	     45.010447	     12387.201
        581.00	     250214.54	     64.851243	     12387.713
        582.00	     251420.90	     108.99764	     12388.018
        583.00	     252991.98	     42.706190	     12388.431
        584.00	     254841.64	     86.866760	     12388.944
        585.00	     256472.01	     100.81976	     12389.248
        586.00	     258142.28	     72.550801	     12389.553
        587.00	     259454.49	     44.003354	     12389.966
        588.00	     260780.61	     111.55710	     12390.485
        589.00	     262408.43	     67.963181	     12390.789
        590.00	     263913.22	     103.86851	     12391.308
        591.00	     265125.57	     58.936966	     12391.613
        592.00	     267312.11	     141.87534	     12392.128
        593.00	     267845.11	     74.547712	     12392.433
        594.00	     269334.00	     76.780999	     12392.952
        595.00	     271061.97	     151.01955	     12393.464
        596.00	     272454.69	     54.541855	     12393.769
        597.00	     274403.86	     149.13017	     12394.284
        598.00	     275221.29	     64.360216	     12394.589
        599.00	     277028.75	     127.21113	     12395.105
        600.00	     278244.40	     143.14553	     12395.409
        601.00	     279088.24	     80.998866	     12395.822
        602.00	     280574.65	     85.189481	     12396.338
        603.00	     281801.08	     44.547786	     12396.851
        604.00	     283384.59	     218.86632	     12397.363
        605.00	     284095.53	     93.077551	     12397.668
        606.00	     285396.78	     88.022713	     12398.187
        607.00	     286201.81	     52.744888	     12398.699
        608.00	     287544.94	     294.05745	     12399.215
        609.00	     288607.28	     289.28856	     12399.520
        610.00	     288851.76	     62.280081	     12399.933
        611.00	     290100.41	     358.62426	     12400.445
        612.00	     290064.17	     400.97362	     12400.750
        613.00	     290344.07	     443.89836	     12401.054
        614.00	     288804.32	     83.062676	     12401.468
        615.00	     289905.49	     465.81919	     12401.986
        616.00	     289643.56	     640.95472	     12402.291
        617.00	     287144.04	     83.544363	     12402.595
        618.00	     287826.25	     734.60327	     12403.117
        619.00	     285899.54	     687.02158	     12403.422
        620.00	     282442.18	     119.73312	     12403.835
        621.00	     282064.88	     889.91069	     12404.348
        622.00	     279716.77	     777.08390	     12404.652
        623.00	     274560.78	     150.92463	     12405.065
        624.00	     273686.77	     928.33404	     12405.581
        625.00	     270223.52	     900.92152	     12405.886
        626.00	     263956.33	     181.90660	     12406.299
        627.00	     263020.24	     1095.2892	     12406.811
        628.00	     258448.05	     1065.1158	     12407.116
        629.00	     254408.74	     1142.7974	     12407.420
        630.00	     247424.54	     141.19891	     12407.833
        631.00	     245451.55	     1261.0638	     12408.352
        632.00	     237960.84	     139.80570	     12408.657
        633.00	     236300.04	     1216.6111	     12409.172
        634.00	     231544.81	     1084.5082	     12409.477
        635.00	     223400.82	     177.03485	     12409.890
        636.00	     218705.95	     125.78304	     12410.403
        637.00	     216948.79	     1253.7487	     12410.916
        638.00	     211949.86	     1146.2205	     12411.220
        639.00	     203927.09	     187.48102	     12411.633
        640.00	     202238.90	     1160.2945	     12412.146
        641.00	     197584.41	     1092.8798	     12412.450
        642.00	     189961.30	     220.67188	     12412.755
        643.00	     185340.20	     186.66688	     12413.280
        644.00	     183411.32	     1067.0026	     12413.792
        645.00	     178533.97	     1002.5627	     12414.097
        646.00	     172140.02	     127.86983	     12414.510
        647.00	     167485.15	     147.13727	     12415.023
        648.00	     165890.73	     1009.8099	     12415.535
        649.00	     161588.83	     996.79485	     12415.840
        650.00	     157696.94	     909.37327	     12416.144
        651.00	     151497.66	     222.09628	     12416.557
        652.00	     149865.51	     922.62262	     12417.076
        653.00	     146086.35	     887.43367	     12417.381
        654.00	     142015.33	     847.62356	     12417.685
        655.00	     136429.02	     203.03196	     12418.099
        656.00	     134523.27	     782.66359	     12418.618
        657.00	     131554.57	     872.14316	     12418.922
        658.00	     127774.07	     729.28818	     12419.226
        659.00	     122588.81	     170.33882	     12419.640
        660.00	     119304.38	     205.72504	     12420.159
        661.00	     117900.43	     758.22492	     12420.674
        662.00	     112857.30	     175.42797	     12420.979
        663.00	     109770.97	     163.49950	     12421.494
        664.00	     108569.97	     724.04040	     12422.007
        665.00	     103425.51	     134.33975	     12422.312
        666.00	     102529.76	     796.51754	     12422.827
        667.00	     98170.360	     145.18366	     12423.132
        668.00	     96624.429	     632.28387	     12423.647
        669.00	     92255.920	     114.56018	     12423.952
        670.00	     91057.838	     670.57110	     12424.470
        671.00	     88580.273	     677.26727	     12424.775
        672.00	     84192.456	     80.617218	     12425.188
        673.00	     81710.717	     74.436788	     12425.704
        674.00	     81212.413	     512.83811	     12426.217
        675.00	     78819.316	     561.35321	     12426.521
        676.00	     75945.159	     433.65948	     12426.826
        677.00	     72779.707	     113.19092	     12427.239
        678.00	     71451.733	     560.72414	     12427.758
        679.00	     69257.836	     460.89904	     12428.062
        680.00	     66793.504	     468.07049	     12428.367
        681.00	     63836.301	     97.486771	     12428.780
        682.00	     63026.780	     428.55507	     12429.302
        683.00	     60044.254	     87.248761	     12429.607
        684.00	     57873.134	     86.413037	     12430.122
        685.00	     56279.174	     77.601820	     12430.638
        686.00	     55098.901	     424.93208	     12431.147
        687.00	     53309.511	     397.94304	     12431.452
        688.00	     51863.076	     340.16009	     12431.756
        689.00	     49448.755	     138.85099	     12432.169
        690.00	     48666.860	     313.49128	     12432.688
        691.00	     46333.110	     113.96954	     12432.993
        692.00	     45524.136	     338.00640	     12433.511
        693.00	     43436.174	     112.99729	     12433.816
        694.00	     42728.025	     317.17169	     12434.332
        695.00	     41644.032	     252.28710	     12434.636
        696.00	     39520.807	     173.83341	     12435.049
        697.00	     39072.908	     293.29732	     12435.562
        698.00	     37869.621	     239.86567	     12435.867
        699.00	     35821.318	     126.21343	     12436.280
        700.00	     35588.084	     296.00216	     12436.792
        701.00	     33949.025	     108.75745	     12437.097
        702.00	     33487.394	     263.03522	     12437.613
        703.00	     32558.847	     256.23294	     12437.917
        704.00	     31024.538	     98.195312	     12438.330
        705.00	     30574.055	     212.37227	     12438.846
        706.00	     29831.099	     261.37951	     12439.151
        707.00	     28421.797	     103.83381	     12439.564
        708.00	     27584.478	     66.253246	     12440.077
        709.00	     26954.550	     125.12333	     12440.589
        710.00	     26196.421	     100.40953	     12441.102
        711.00	     25882.694	     224.02387	     12441.614
        712.00	     24576.467	     128.34934	     12441.919
        713.00	     23937.561	     84.139944	     12442.438
        714.00	     23746.023	     140.41942	     12442.950
        715.00	     23387.784	     181.44535	     12443.255
        716.00	     22303.342	     188.20944	     12443.575
        717.00	     21662.619	     131.36588	     12443.880
        718.00	     21567.546	     168.53060	     12444.392
        719.00	     20733.498	     157.01447	     12444.696
        720.00	     19716.498	     112.40920	     12445.109
        721.00	     19726.165	     212.59415	     12445.622
        722.00	     19337.890	     132.38648	     12445.927
        723.00	     18481.589	     84.719099	     12446.340
        724.00	     17889.642	     81.032420	     12446.853
        725.00	     17585.989	     128.06498	     12447.365
        726.00	     17410.890	     124.87862	     12447.881
        727.00	     17183.166	     110.45696	     12448.186
        728.00	     16334.353	     103.05126	     12448.598
        729.00	     15937.465	     116.65986	     12449.111
        730.00	     15614.665	     96.202200	     12449.624
        731.00	     15704.866	     142.36575	     12450.136
        732.00	     15223.648	     140.41930	     12450.441
        733.00	     14765.880	     95.907649	     12450.854
        734.00	     14520.350	     147.60465	     12451.367
        735.00	     14275.605	     195.90249	     12451.671
        736.00	     13849.715	     135.73952	     12451.975
        737.00	     13425.701	     103.30699	     12452.389
        738.00	     13318.903	     116.48983	     12452.911
        739.00	     13066.662	     172.34922	     12453.215
        740.00	     12466.125	     95.822189	     12453.629
        741.00	     12257.217	     112.80164	     12454.141
        742.00	     12177.314	     122.56842	     12454.654
        743.00	     11648.217	     125.30470	     12454.958
        744.00	     11452.435	     93.233977	     12455.263
        745.00	     11065.289	     105.59193	     12455.676
        746.00	     11162.888	     85.185250	     12456.195
        747.00	     10926.907	     115.44154	     12456.500
        748.00	     10478.187	     144.63361	     12457.018
        749.00	     10309.806	     121.22823	     12457.322
        750.00	     10029.857	     96.093566	     12457.736
        751.00	     9871.0583	     112.81727	     12458.249
        752.00	     9814.2232	     127.07703	     12458.553
        753.00	     9395.0094	     109.37620	     12458.966
        754.00	     9062.5079	     112.51098	     12459.482
        755.00	     9097.0776	     107.13727	     12459.786
        756.00	     8922.2651	     61.532895	     12460.199
        757.00	     8796.3166	     117.25924	     12460.712
        758.00	     8473.2413	     114.77627	     12461.017
        759.00	     8248.5098	     122.30383	     12461.430
        760.00	     8175.6029	     103.05600	     12461.943
        761.00	     8062.9096	     121.80696	     12462.455
        762.00	     8017.3010	     66.349459	     12462.968
        763.00	     7898.9572	     119.15964	     12463.272
        764.00	     7607.5740	     98.998489	     12463.577
        765.00	     7663.8951	     100.62018	     12464.102
        766.00	     7407.6679	     125.30383	     12464.406
        767.00	     7197.4059	     79.930187	     12464.807
        768.00	     7108.3195	     83.229570	     12465.332
        769.00	     6956.0219	     79.895374	     12465.640
        770.00	     6763.4662	     66.801237	     12466.152
        771.00	     6669.6593	     89.991548	     12466.457
        772.00	     6647.3761	     64.661147	     12466.870
        773.00	     6516.6216	     84.161034	     12467.383
        774.00	     6448.3559	     117.42501	     12467.687
        775.00	     6253.2131	     74.577793	     12468.100
        776.00	     6012.2009	     57.828665	     12468.616
        777.00	     6060.0071	     68.276886	     12468.920
        778.00	     5851.1914	     105.72409	     12469.334
        779.00	     5935.9473	     95.284880	     12469.846
        780.00	     5678.4304	     91.981830	     12470.362
        781.00	     5907.7772	     116.40362	     12470.667
        782.00	     5534.5993	     93.671797	     12471.080
        783.00	     5739.8318	     60.123545	     12471.592
        784.00	     5558.4148	     98.654511	     12472.108
        785.00	     5428.0022	     106.31017	     12472.412
        786.00	     5294.9692	     59.218056	     12472.826
        787.00	     5384.4629	     59.260424	     12473.338
        788.00	     5249.9530	     93.414806	     12473.643
        789.00	     5159.1606	     88.372715	     12474.056
        790.00	     5267.1424	     91.988333	     12474.569
        791.00	     5220.4889	     111.10548	     12474.873
        792.00	     5114.0047	     122.41328	     12475.178
        793.00	     5172.9342	     52.163788	     12475.700
        794.00	     5168.8000	     72.846871	     12476.212
        795.00	     4865.7690	     74.132948	     12476.517
        796.00	     4744.2884	     98.537915	     12477.035
        797.00	     4632.0235	     102.37179	     12477.340
        798.00	     4345.8310	     117.91203	     12477.753
        799.00	     4186.6515	     93.065116	     12478.269
        800.00	     3836.4166	     73.078348	     12478.574
