Title=200220_em_MeCN_2,0uM_RhoB
Comment=
Signature=ISS_Experiment_Ver_1_0
Timestamp=Thu Feb 20 14:22:49 2020
Product=Vinci2
SoftwareVersion=BETA.2.4
BuildNumber=234
RealTimeStart=4954.7237256

AcquisitionType=Photon Counting
AcquisitionFormat=L
AcquisitionSide=Right
Detector Gains=(0.0, 0.0)

Measurable=Intensity
MaxIterations=10

RightEmissionWavelengthBandwidth=8.0
ExcitationWavelengthBandwidth=8.0
Visualization=Y:Intensity,X:EmissionWavelength,PlotType:2D


EmissionWavelength=type:numeric,unit:nm,from:400.0,to:800.0,step:1.0
ExcitationWavelength=type:numeric,unit:nm,fixed:556.0

Space=EmissionWavelength
Columns=EmissionWavelength,Intensity,IntensityStdError,RealTime
[Data]
        400.00	     43.570744	     2.0126765	     4957.8797
        401.00	     45.385970	     1.5363186	     4958.4514
        402.00	     46.437518	     1.5614242	     4958.7559
        403.00	     43.080321	     1.7376102	     4959.1690
        404.00	     45.297916	     2.0555699	     4959.6817
        405.00	     40.914478	     1.9611460	     4959.9862
        406.00	     39.208604	     1.7804874	     4960.2906
        407.00	     41.543833	     2.1983935	     4960.7038
        408.00	     39.563859	     1.5419102	     4961.2259
        409.00	     38.519018	     1.8821353	     4961.5303
        410.00	     40.559089	    0.94335729	     4961.9435
        411.00	     39.205709	     1.7699791	     4962.4561
        412.00	     40.928967	     1.0828640	     4962.7605
        413.00	     37.540063	     1.4450100	     4963.1738
        414.00	     40.393165	     1.7804161	     4963.6864
        415.00	     36.710030	     1.3601519	     4963.9909
        416.00	     40.845525	     1.3700425	     4964.4041
        417.00	     36.893413	     1.5923514	     4964.9197
        418.00	     39.806108	     2.1456444	     4965.2243
        419.00	     35.518313	     1.9857975	     4965.6375
        420.00	     41.081299	     1.9691422	     4966.1499
        421.00	     33.640690	     1.1151412	     4966.4545
        422.00	     34.399244	     1.4374562	     4966.7589
        423.00	     35.452313	     2.1581958	     4967.1722
        424.00	     35.352368	     1.5923896	     4967.6912
        425.00	     35.157323	     1.2785488	     4967.9956
        426.00	     39.149796	     2.3178426	     4968.3001
        427.00	     34.535235	     2.3707107	     4968.7133
        428.00	     35.298382	     2.0727033	     4969.2322
        429.00	     35.024806	     2.4190887	     4969.5367
        430.00	     34.238875	     1.6096383	     4969.9498
        431.00	     34.249766	     1.6463533	     4970.4625
        432.00	     32.943715	     1.1970657	     4970.7668
        433.00	     34.224831	     1.2005855	     4971.1801
        434.00	     35.988604	     2.2217104	     4971.6958
        435.00	     33.377883	     2.0276827	     4972.0002
        436.00	     31.055008	     1.6143138	     4972.4136
        437.00	     35.722325	     1.6877170	     4972.9262
        438.00	     35.780371	     1.7508873	     4973.2305
        439.00	     37.104019	     2.1698773	     4973.5349
        440.00	     35.560407	     2.4032762	     4973.9483
        441.00	     37.043985	     1.5731440	     4974.4671
        442.00	     37.204373	     1.4821294	     4974.7715
        443.00	     33.824886	     1.6446005	     4975.1849
        444.00	     32.335234	     2.2291099	     4975.6975
        445.00	     34.150031	     2.1886539	     4976.0018
        446.00	     37.548169	     2.3502745	     4976.3065
        447.00	     39.082030	     2.2602106	     4976.7197
        448.00	     39.576905	     2.3125372	     4977.2386
        449.00	     38.140008	     1.1420668	     4977.5428
        450.00	     39.461206	     1.7443790	     4977.9562
        451.00	     41.717358	     2.1717189	     4978.4720
        452.00	     40.952148	     1.8017846	     4978.7763
        453.00	     38.624220	     2.3972093	     4979.1896
        454.00	     40.013797	     2.0290568	     4979.7023
        455.00	     45.253185	     2.8424676	     4980.0069
        456.00	     44.086411	     1.9268040	     4980.4200
        457.00	     44.161019	     2.4245647	     4980.9324
        458.00	     44.410855	     1.7902876	     4981.2372
        459.00	     46.866143	     2.7770410	     4981.5419
        460.00	     45.540730	     2.6587534	     4982.0633
        461.00	     42.854204	     1.4765930	     4982.3680
        462.00	     49.088030	     2.3246463	     4982.6725
        463.00	     49.661640	     1.8893015	     4983.0856
        464.00	     47.358538	     2.1810372	     4983.6045
        465.00	     45.790764	     2.0320258	     4983.9088
        466.00	     48.048535	     2.2343128	     4984.3221
        467.00	     51.144752	     2.2422581	     4984.8347
        468.00	     53.150229	     2.0630156	     4985.1391
        469.00	     52.657592	     2.0047993	     4985.5524
        470.00	     55.657330	     2.1177412	     4986.0649
        471.00	     52.878050	     2.8548102	     4986.3696
        472.00	     58.085416	     2.7713639	     4986.6740
        473.00	     58.224469	     2.3076851	     4987.0872
        474.00	     62.414786	     2.4868216	     4987.6060
        475.00	     58.486166	     2.9971974	     4987.9104
        476.00	     60.808334	     2.3858501	     4988.3239
        477.00	     65.491172	     2.0142697	     4988.8363
        478.00	     64.909399	     2.1241255	     4989.1409
        479.00	     66.739668	     2.1693767	     4989.5542
        480.00	     65.847759	     2.4706434	     4990.0668
        481.00	     68.025418	     2.6632099	     4990.3715
        482.00	     66.820839	     1.9699745	     4990.8900
        483.00	     63.611878	     1.7083759	     4991.1944
        484.00	     70.195928	     1.9104065	     4991.6078
        485.00	     69.700712	     1.1149934	     4992.1202
        486.00	     75.290324	     1.8006210	     4992.4247
        487.00	     74.571388	     2.7847055	     4992.8381
        488.00	     75.601929	     3.8449574	     4993.3536
        489.00	     78.861734	     2.7784329	     4993.6583
        490.00	     77.997896	     3.2923626	     4994.0715
        491.00	     76.446798	     2.8547386	     4994.5842
        492.00	     81.375003	     2.5844044	     4994.8884
        493.00	     81.425866	     1.8619228	     4995.1931
        494.00	     82.973690	     3.8580872	     4995.6063
        495.00	     83.147411	     1.9336607	     4996.1252
        496.00	     84.108629	     2.7407045	     4996.4298
        497.00	     86.166674	     3.1596699	     4996.9482
        498.00	     86.159819	     2.9148941	     4997.2529
        499.00	     89.799624	     2.4116856	     4997.6659
        500.00	     97.680903	     1.4713661	     4998.1789
        501.00	     103.95939	     4.1300329	     4998.4830
        502.00	     107.03154	     2.2619612	     4998.8963
        503.00	     102.95441	     2.1385755	     4999.4092
        504.00	     108.16008	     3.1567711	     4999.7137
        505.00	     121.16870	     3.5882905	     5000.1267
        506.00	     128.42458	     4.1018098	     5000.6392
        507.00	     130.65117	     3.5779553	     5000.9437
        508.00	     140.62317	     3.5598063	     5001.3571
        509.00	     141.88829	     4.0380795	     5001.8697
        510.00	     151.96013	     4.2536227	     5002.1742
        511.00	     156.81616	     3.8742888	     5002.5874
        512.00	     170.24154	     3.6482064	     5003.0999
        513.00	     173.48048	     4.8907365	     5003.4047
        514.00	     183.60404	     3.2442395	     5003.8177
        515.00	     196.22095	     6.2134260	     5004.3302
        516.00	     216.53107	     5.0063256	     5004.6348
        517.00	     226.20026	     5.1950098	     5004.9392
        518.00	     259.27101	     4.1837121	     5005.3525
        519.00	     264.13951	     4.4410190	     5005.8712
        520.00	     306.63322	     6.6383079	     5006.1758
        521.00	     335.75209	     8.1088274	     5006.4804
        522.00	     374.59880	     7.0156139	     5006.8935
        523.00	     415.22844	     10.450422	     5007.4124
        524.00	     469.97996	     13.550093	     5007.7168
        525.00	     520.05643	     8.2757840	     5008.0211
        526.00	     622.93199	     4.9621214	     5008.4345
        527.00	     680.88472	     19.526063	     5008.9533
        528.00	     783.23454	     19.400012	     5009.2579
        529.00	     919.35655	     22.215625	     5009.5621
        530.00	     1110.7293	     5.8080490	     5009.9755
        531.00	     1246.9562	     26.822382	     5010.4945
        532.00	     1457.9267	     41.597428	     5010.7989
        533.00	     1711.7626	     35.859707	     5011.1031
        534.00	     2125.5645	     11.251697	     5011.5165
        535.00	     2396.8507	     68.987047	     5012.0352
        536.00	     2876.2270	     79.549967	     5012.3397
        537.00	     3750.0161	     11.465716	     5012.6445
        538.00	     4301.0732	     129.65806	     5013.1661
        539.00	     5214.8296	     148.49769	     5013.4707
        540.00	     6453.4495	     173.70757	     5013.7752
        541.00	     8373.9519	     31.783685	     5014.1884
        542.00	     10189.741	     30.366518	     5014.7074
        543.00	     11501.135	     310.98733	     5015.2196
        544.00	     13885.723	     352.03026	     5015.5241
        545.00	     17285.876	     46.620341	     5015.9376
        546.00	     19394.578	     507.72520	     5016.4501
        547.00	     23076.848	     534.29363	     5016.7547
        548.00	     25437.732	     599.45434	     5017.1676
        549.00	     32481.056	     57.469541	     5017.4722
        550.00	     35478.493	     753.35649	     5017.9881
        551.00	     41010.026	     803.65565	     5018.2927
        552.00	     48662.201	     50.445288	     5018.7058
        553.00	     52789.397	     892.16524	     5019.2182
        554.00	     59313.744	     911.78272	     5019.5227
        555.00	     68541.462	     96.649256	     5019.9361
        556.00	     72676.834	     1003.0722	     5020.4486
        557.00	     79950.254	     1038.5685	     5020.7533
        558.00	     87295.564	     1020.6719	     5021.0577
        559.00	     97192.110	     104.02197	     5021.4708
        560.00	     102673.49	     979.51719	     5021.9898
        561.00	     109726.14	     959.99696	     5022.2940
        562.00	     116911.43	     922.95513	     5022.5986
        563.00	     125741.59	     89.654124	     5023.0116
        564.00	     130357.09	     867.84700	     5023.5306
        565.00	     137054.58	     825.74246	     5023.8350
        566.00	     143617.71	     731.11873	     5024.1396
        567.00	     150943.78	     125.84417	     5024.5528
        568.00	     154809.46	     689.90458	     5025.0715
        569.00	     160510.01	     578.43954	     5025.3762
        570.00	     165023.77	     507.25074	     5025.6807
        571.00	     170564.93	     113.69313	     5026.0939
        572.00	     173425.91	     400.31350	     5026.6127
        573.00	     177237.83	     355.18030	     5026.9170
        574.00	     180392.80	     264.79689	     5027.2215
        575.00	     184305.42	     68.431012	     5027.6349
        576.00	     186075.90	     177.00668	     5028.1538
        577.00	     188526.45	     178.30984	     5028.4582
        578.00	     190784.84	     139.72666	     5028.7625
        579.00	     192906.80	     96.920277	     5029.1758
        580.00	     194906.38	     85.628564	     5029.6947
        581.00	     196153.60	     61.248059	     5029.9993
        582.00	     196721.71	     155.15692	     5030.3039
        583.00	     197187.92	     100.15049	     5030.7172
        584.00	     197983.92	     187.60861	     5031.2355
        585.00	     198054.37	     274.03487	     5031.5402
        586.00	     197793.81	     243.86677	     5031.8446
        587.00	     196680.87	     128.99745	     5032.2579
        588.00	     196536.17	     382.52402	     5032.7767
        589.00	     195438.51	     438.18253	     5033.0812
        590.00	     193898.69	     478.98186	     5033.3858
        591.00	     190970.69	     124.06297	     5033.7989
        592.00	     190732.72	     576.64906	     5034.3177
        593.00	     187961.35	     558.02159	     5034.6222
        594.00	     185440.51	     624.66936	     5034.9265
        595.00	     181429.99	     129.95362	     5035.3398
        596.00	     180219.06	     647.53894	     5035.8586
        597.00	     177170.86	     760.01622	     5036.1632
        598.00	     173824.90	     714.27289	     5036.4676
        599.00	     168911.01	     106.01265	     5036.8807
        600.00	     167111.69	     889.83293	     5037.3996
        601.00	     163471.89	     745.34258	     5037.7040
        602.00	     159702.71	     740.40427	     5038.0088
        603.00	     154548.54	     116.18435	     5038.4219
        604.00	     152429.15	     791.83959	     5038.9406
        605.00	     148976.42	     820.46982	     5039.2453
        606.00	     145240.66	     772.34631	     5039.5495
        607.00	     139936.33	     108.40252	     5039.9629
        608.00	     138183.54	     673.37988	     5040.4815
        609.00	     135055.61	     690.34826	     5040.7863
        610.00	     131594.30	     702.47989	     5041.0905
        611.00	     126764.64	     147.07372	     5041.5039
        612.00	     125558.22	     633.83060	     5042.0227
        613.00	     122549.97	     683.76392	     5042.3272
        614.00	     119773.29	     614.50877	     5042.6315
        615.00	     115872.99	     126.97242	     5043.0449
        616.00	     113621.74	     132.76594	     5043.5639
        617.00	     112395.41	     513.87058	     5044.0762
        618.00	     110619.21	     579.34710	     5044.3810
        619.00	     107289.81	     108.89260	     5044.7941
        620.00	     106656.69	     529.59297	     5045.3068
        621.00	     104841.56	     460.18184	     5045.6112
        622.00	     102323.99	     88.125457	     5046.0243
        623.00	     101866.93	     528.85187	     5046.5371
        624.00	     100539.92	     396.77733	     5046.8416
        625.00	     98171.259	     162.96714	     5047.2547
        626.00	     97798.270	     454.59009	     5047.7672
        627.00	     96617.878	     417.33121	     5048.0720
        628.00	     94847.019	     372.06914	     5048.3761
        629.00	     92595.093	     73.435307	     5048.7893
        630.00	     91700.816	     56.175145	     5049.3114
        631.00	     91041.397	     375.22851	     5049.8240
        632.00	     89722.441	     391.47843	     5050.1286
        633.00	     87514.560	     127.77052	     5050.5417
        634.00	     87079.291	     391.89153	     5051.0542
        635.00	     85633.904	     394.27434	     5051.3587
        636.00	     83194.158	     99.081702	     5051.7720
        637.00	     82606.753	     456.10597	     5052.2878
        638.00	     80110.115	     109.61210	     5052.5925
        639.00	     79602.862	     403.84461	     5053.1078
        640.00	     78039.774	     462.38452	     5053.4124
        641.00	     75290.741	     119.47649	     5053.8257
        642.00	     74677.910	     405.90149	     5054.3382
        643.00	     72836.124	     474.37711	     5054.6430
        644.00	     71040.017	     488.52390	     5054.9471
        645.00	     68334.181	     94.073520	     5055.3605
        646.00	     67578.766	     439.26427	     5055.8792
        647.00	     65663.391	     481.35390	     5056.1839
        648.00	     63950.754	     424.75563	     5056.4883
        649.00	     63017.577	     415.30139	     5056.9012
        650.00	     59348.499	     84.602992	     5057.2059
        651.00	     57827.729	     94.384058	     5057.7312
        652.00	     57125.647	     404.48613	     5058.2435
        653.00	     55117.880	     295.77673	     5058.5479
        654.00	     52450.224	     109.65464	     5058.9614
        655.00	     50646.013	     78.091071	     5059.4772
        656.00	     49969.007	     370.21610	     5059.9898
        657.00	     48387.606	     418.45401	     5060.2940
        658.00	     45787.255	     124.48772	     5060.5988
        659.00	     45187.543	     325.36001	     5061.1204
        660.00	     43596.147	     346.76629	     5061.4250
        661.00	     41212.119	     74.940488	     5061.8383
        662.00	     40572.454	     349.30531	     5062.3540
        663.00	     39144.893	     311.29714	     5062.6583
        664.00	     37165.551	     69.463548	     5063.0716
        665.00	     36587.681	     293.51440	     5063.5843
        666.00	     34586.308	     60.253853	     5063.8891
        667.00	     34069.087	     275.44828	     5064.4078
        668.00	     32280.525	     117.35666	     5064.7123
        669.00	     31779.852	     292.42654	     5065.2277
        670.00	     30468.769	     200.18518	     5065.5325
        671.00	     29048.288	     70.204554	     5065.9456
        672.00	     28575.536	     232.21632	     5066.4580
        673.00	     26996.717	     89.098462	     5066.7631
        674.00	     26505.297	     221.83219	     5067.2782
        675.00	     25631.544	     170.18562	     5067.5829
        676.00	     24377.259	     72.096412	     5067.9961
        677.00	     23631.524	     71.996220	     5068.5088
        678.00	     23381.237	     185.94269	     5069.0211
        679.00	     22730.823	     196.80607	     5069.3256
        680.00	     21845.058	     158.83752	     5069.6303
        681.00	     20835.306	     78.278874	     5070.0435
        682.00	     20735.236	     167.06551	     5070.5625
        683.00	     19980.824	     143.30922	     5070.8666
        684.00	     19313.339	     85.022527	     5071.1712
        685.00	     18676.109	     58.592418	     5071.5844
        686.00	     18439.218	     154.70068	     5072.1032
        687.00	     17769.442	     162.19270	     5072.4079
        688.00	     17524.089	     148.24174	     5072.7121
        689.00	     16698.922	     65.917026	     5073.1255
        690.00	     16408.949	     111.02844	     5073.6442
        691.00	     16203.339	     111.79762	     5073.9488
        692.00	     15589.334	     115.10044	     5074.2533
        693.00	     15021.214	     78.871817	     5074.6665
        694.00	     15021.477	     114.92964	     5075.1851
        695.00	     14418.343	     80.525164	     5075.4896
        696.00	     14344.944	     158.51003	     5075.7943
        697.00	     13569.697	     45.102196	     5076.2075
        698.00	     13443.889	     101.80282	     5076.7264
        699.00	     13100.674	     99.963183	     5077.0307
        700.00	     12795.913	     117.71567	     5077.3351
        701.00	     12308.436	     88.098417	     5077.7485
        702.00	     12293.503	     113.29259	     5078.2673
        703.00	     11776.005	     67.008538	     5078.5718
        704.00	     11610.895	     89.274041	     5079.0908
        705.00	     11439.016	     76.085100	     5079.3952
        706.00	     10993.916	     46.017339	     5079.8083
        707.00	     10826.739	     107.32934	     5080.3240
        708.00	     10525.373	     84.037792	     5080.6287
        709.00	     10046.581	     39.206038	     5081.0419
        710.00	     10001.245	     123.46033	     5081.5544
        711.00	     9741.3038	     65.334805	     5081.8587
        712.00	     9387.5169	     39.145357	     5082.2721
        713.00	     9225.8067	     93.625018	     5082.7845
        714.00	     9004.9418	     82.264979	     5083.0892
        715.00	     8602.7611	     63.452714	     5083.5024
        716.00	     8511.8827	     63.964915	     5084.0153
        717.00	     8420.5897	     63.952731	     5084.3195
        718.00	     8190.0671	     109.88563	     5084.6238
        719.00	     7938.6538	     97.899159	     5084.9438
        720.00	     7470.6699	     84.381339	     5085.3572
        721.00	     7467.9568	     64.597157	     5085.8666
        722.00	     7333.5389	     91.667512	     5086.1712
        723.00	     7008.4773	     64.644174	     5086.5844
        724.00	     6898.1453	     67.821830	     5087.0970
        725.00	     6698.9539	     114.18050	     5087.4013
        726.00	     6380.5238	     45.801891	     5087.8147
        727.00	     6196.2723	     86.232743	     5088.3274
        728.00	     6141.6221	     67.789026	     5088.6316
        729.00	     5870.8717	     87.278481	     5088.9516
        730.00	     5562.1622	     59.275955	     5089.2564
        731.00	     5623.4470	     71.379034	     5089.7721
        732.00	     5188.3704	     55.313344	     5090.0768
        733.00	     5274.2371	     87.478457	     5090.5922
        734.00	     5048.5795	     61.856371	     5090.8965
        735.00	     4945.2562	     80.097995	     5091.3099
        736.00	     4725.3966	     65.133338	     5091.8226
        737.00	     4677.6818	     42.813233	     5092.1269
        738.00	     4555.0894	     69.922099	     5092.5403
        739.00	     4356.8473	     53.683495	     5093.0529
        740.00	     4335.9866	     44.983107	     5093.3574
        741.00	     4118.1339	     51.326834	     5093.7706
        742.00	     4151.3058	     68.275459	     5094.2832
        743.00	     3949.6330	     68.840378	     5094.5878
        744.00	     3773.3135	     87.235040	     5095.0009
        745.00	     3817.3159	     78.912266	     5095.5134
        746.00	     3712.8756	     34.018341	     5095.8179
        747.00	     3462.3623	     44.714999	     5096.2312
        748.00	     3478.7619	     54.859022	     5096.7468
        749.00	     3170.2000	     25.407000	     5097.0514
        750.00	     3074.6392	     62.804368	     5097.4646
        751.00	     3159.7886	     59.343427	     5097.9773
        752.00	     3173.2195	     53.642560	     5098.2815
        753.00	     3011.6190	     69.745256	     5098.6949
        754.00	     2917.5551	     47.930696	     5099.2074
        755.00	     2859.8994	     26.283288	     5099.5119
        756.00	     2857.4258	     58.406854	     5099.9252
        757.00	     2755.3024	     73.360450	     5100.4377
        758.00	     2653.0643	     48.529255	     5100.7423
        759.00	     2525.7953	     63.713489	     5101.1555
        760.00	     2632.5430	     63.884216	     5101.6682
        761.00	     2533.4671	     61.603448	     5101.9726
        762.00	     2404.7267	     60.650563	     5102.3859
        763.00	     2390.6050	     74.857841	     5102.8985
        764.00	     2302.2687	     72.645548	     5103.2030
        765.00	     2235.3777	     35.347167	     5103.6162
        766.00	     2309.0098	     58.035335	     5104.1287
        767.00	     2213.4513	     73.353491	     5104.4332
        768.00	     2076.9650	     45.460478	     5104.8465
        769.00	     2001.1679	     51.311997	     5105.3593
        770.00	     2051.7523	     51.826518	     5105.6638
        771.00	     1995.8840	     62.477803	     5106.1792
        772.00	     1972.2842	     80.656285	     5106.4839
        773.00	     1831.6919	     69.064782	     5106.7884
        774.00	     1814.2427	     59.547108	     5107.2014
        775.00	     1822.3995	     53.989244	     5107.7203
        776.00	     1887.4963	     58.921518	     5108.2360
        777.00	     1698.9394	     137.84599	     5108.7485
        778.00	     1679.4702	     64.711771	     5109.0532
        779.00	     1654.3148	     44.683446	     5109.3578
        780.00	     1582.8377	     40.864894	     5109.7709
        781.00	     1749.9763	     74.191551	     5110.2927
        782.00	     1499.7351	     73.255092	     5110.5973
        783.00	     1590.7492	     67.010809	     5111.0105
        784.00	     1466.8141	     61.962555	     5111.5232
        785.00	     1479.4856	     63.472898	     5111.8276
        786.00	     1533.5239	     71.414692	     5112.2409
        787.00	     1362.9635	     51.479832	     5112.7535
        788.00	     1486.1241	     52.890634	     5113.0581
        789.00	     1394.5760	     54.117015	     5113.4711
        790.00	     1483.5927	     60.941753	     5113.9838
        791.00	     1301.9849	     81.173660	     5114.2880
        792.00	     1281.2694	     46.790690	     5114.5925
        793.00	     1284.0617	     59.978783	     5115.0060
        794.00	     1300.0000	     70.666667	     5115.5250
        795.00	     1270.8505	     48.168956	     5116.0376
        796.00	     1225.0142	     60.477489	     5116.5498
        797.00	     1243.6499	     73.226205	     5116.8544
        798.00	     949.22485	     38.470310	     5117.2677
        799.00	     1021.3967	     46.712391	     5117.7805
        800.00	     825.71881	     51.540151	     5118.2963
