Title=200220_em_0,1MNaOH_2,0uM_RhoB
Comment=
Signature=ISS_Experiment_Ver_1_0
Timestamp=Thu Feb 20 17:22:58 2020
Product=Vinci2
SoftwareVersion=BETA.2.4
BuildNumber=234
RealTimeStart=8313.32708729

AcquisitionType=Photon Counting
AcquisitionFormat=L
AcquisitionSide=Right
Detector Gains=(0.0, 0.0)

Measurable=Intensity
MaxIterations=10

RightEmissionWavelengthBandwidth=8.0
ExcitationWavelengthBandwidth=8.0
Visualization=Y:Intensity,X:EmissionWavelength,PlotType:2D


EmissionWavelength=type:numeric,unit:nm,from:400.0,to:800.0,step:1.0
ExcitationWavelength=type:numeric,unit:nm,fixed:553.0

Space=EmissionWavelength
Columns=EmissionWavelength,Intensity,IntensityStdError,RealTime
[Data]
        400.00	     151.50631	     3.7362476	     8316.3018
        401.00	     154.35826	     2.5176503	     8316.8858
        402.00	     147.72864	     3.3046645	     8317.1902
        403.00	     149.85553	     2.2356867	     8317.6036
        404.00	     152.59807	     3.0448198	     8318.1163
        405.00	     149.45751	     3.1476148	     8318.4209
        406.00	     152.56125	     3.0173287	     8318.8339
        407.00	     152.03227	     1.9590821	     8319.3464
        408.00	     150.81879	     2.8639088	     8319.6510
        409.00	     151.74227	     2.9545152	     8320.0642
        410.00	     151.85867	     2.4485855	     8320.5769
        411.00	     151.99578	     2.0566686	     8320.8816
        412.00	     151.17641	     2.2866631	     8321.3974
        413.00	     150.31903	     2.8161327	     8321.7015
        414.00	     153.56211	     3.0212106	     8322.1148
        415.00	     148.24942	     2.2142156	     8322.6274
        416.00	     152.39136	     2.8077516	     8322.9320
        417.00	     153.19876	     2.0401230	     8323.3451
        418.00	     159.49817	     2.7772242	     8323.8578
        419.00	     153.31120	     2.0158569	     8324.1625
        420.00	     151.89782	     2.8871402	     8324.6812
        421.00	     156.19384	     4.2313865	     8324.9853
        422.00	     158.35157	     3.6582817	     8325.3987
        423.00	     157.27935	     2.5508431	     8325.9113
        424.00	     155.50436	     1.8504483	     8326.2162
        425.00	     157.90727	     2.8035464	     8326.7347
        426.00	     159.07790	     2.7466904	     8327.0393
        427.00	     160.39698	     3.1823422	     8327.4521
        428.00	     159.41355	     1.5415905	     8327.7568
        429.00	     161.86130	     3.1663741	     8328.2757
        430.00	     161.62625	     3.4598924	     8328.5803
        431.00	     160.35011	     2.4700753	     8328.8844
        432.00	     156.50036	     2.3775740	     8329.2976
        433.00	     161.10540	     2.6900993	     8329.8167
        434.00	     169.77594	     2.5353972	     8330.1211
        435.00	     167.53313	     2.7555411	     8330.5344
        436.00	     163.80322	     2.6841327	     8331.0502
        437.00	     173.74476	     1.7513215	     8331.3544
        438.00	     174.61303	     3.0267707	     8331.6592
        439.00	     170.82352	     3.0631115	     8331.9789
        440.00	     174.20958	     3.1464413	     8332.3922
        441.00	     183.44084	     3.3762178	     8332.9016
        442.00	     181.54265	     1.8248312	     8333.2062
        443.00	     181.59659	     2.1695087	     8333.7217
        444.00	     189.61776	     2.8143389	     8334.0266
        445.00	     186.38988	     1.6702546	     8334.4396
        446.00	     198.73177	     3.3760880	     8334.9523
        447.00	     198.95625	     2.6260779	     8335.2566
        448.00	     203.33734	     2.6073655	     8335.5610
        449.00	     203.37970	     3.2835769	     8335.9744
        450.00	     208.77642	     2.6846479	     8336.4934
        451.00	     209.27360	     2.8969009	     8336.7978
        452.00	     214.53806	     2.4055756	     8337.1022
        453.00	     218.19477	     4.1257872	     8337.5154
        454.00	     225.93597	     2.7830606	     8338.0341
        455.00	     228.26277	     3.0757379	     8338.3386
        456.00	     233.78841	     3.6178064	     8338.6434
        457.00	     238.54813	     2.1944849	     8339.0564
        458.00	     246.22327	     3.0547883	     8339.5751
        459.00	     254.63938	     3.7134877	     8339.8796
        460.00	     251.52291	     2.5176124	     8340.1845
        461.00	     267.59179	     4.0629923	     8340.5974
        462.00	     266.47404	     3.3919484	     8341.1163
        463.00	     282.36960	     4.2873658	     8341.4207
        464.00	     281.08446	     3.8712874	     8341.7253
        465.00	     286.82788	     4.1848521	     8342.1384
        466.00	     291.36632	     5.5489218	     8342.6575
        467.00	     301.96082	     4.2025503	     8343.1732
        468.00	     299.52860	     3.3599863	     8343.4775
        469.00	     309.73251	     3.3999368	     8343.8907
        470.00	     309.66731	     2.9095613	     8344.4034
        471.00	     317.18369	     5.4695082	     8344.7082
        472.00	     324.34329	     5.1948453	     8345.2236
        473.00	     329.33126	     5.4768316	     8345.5278
        474.00	     344.05435	     2.3186102	     8345.8323
        475.00	     347.66136	     2.8654435	     8346.2457
        476.00	     339.28155	     3.1797096	     8346.7646
        477.00	     357.78555	     6.1432335	     8347.0691
        478.00	     357.06017	     4.8102982	     8347.4820
        479.00	     363.30488	     3.3034967	     8347.7867
        480.00	     363.92355	     3.3818541	     8348.3058
        481.00	     375.91114	     4.7407316	     8348.6102
        482.00	     382.70662	     3.7889267	     8349.0233
        483.00	     380.22417	     4.3699883	     8349.5392
        484.00	     392.27850	     4.8180103	     8350.0518
        485.00	     399.35305	     4.9801781	     8350.5644
        486.00	     411.01463	     5.7429483	     8350.8691
        487.00	     410.20426	     5.4020885	     8351.3873
        488.00	     413.00077	     5.3786706	     8351.6918
        489.00	     423.88572	     4.4645177	     8352.1052
        490.00	     424.73542	     6.0826607	     8352.6180
        491.00	     439.15842	     3.9832952	     8352.9221
        492.00	     439.77399	     5.6761521	     8353.3355
        493.00	     437.52832	     7.5421655	     8353.8480
        494.00	     445.74686	     6.1204287	     8354.1529
        495.00	     456.08611	     5.2198229	     8354.6716
        496.00	     466.05885	     4.3216792	     8354.9764
        497.00	     477.17044	     5.0354080	     8355.4918
        498.00	     491.74303	     6.0583719	     8355.7961
        499.00	     520.42808	     4.6636168	     8356.1007
        500.00	     544.61944	     6.3393171	     8356.5139
        501.00	     569.49462	     5.2199366	     8357.0326
        502.00	     603.36003	     2.3586124	     8357.3370
        503.00	     651.10055	     8.1249446	     8357.6415
        504.00	     659.61974	     5.5343789	     8358.0548
        505.00	     701.65691	     5.4321984	     8358.5736
        506.00	     737.40169	     7.3086009	     8358.8781
        507.00	     784.40315	     9.6757440	     8359.1828
        508.00	     836.52006	     7.2010092	     8359.5957
        509.00	     864.61734	     9.5760952	     8360.1146
        510.00	     908.47745	     8.5522545	     8360.4194
        511.00	     980.76403	     16.322857	     8360.7237
        512.00	     1060.2534	     7.7210329	     8361.1368
        513.00	     1107.1742	     16.050249	     8361.6586
        514.00	     1199.0323	     17.408781	     8361.9632
        515.00	     1336.9159	     10.555888	     8362.3765
        516.00	     1388.7328	     17.402079	     8362.8890
        517.00	     1525.9058	     19.166292	     8363.1937
        518.00	     1723.6402	     8.9996141	     8363.6068
        519.00	     1898.6609	     15.381884	     8364.1196
        520.00	     2055.2757	     37.623711	     8364.6319
        521.00	     2282.2221	     43.565586	     8364.9364
        522.00	     2678.1587	     16.792630	     8365.3498
        523.00	     2895.1403	     57.790181	     8365.8623
        524.00	     3272.5340	     76.451824	     8366.1672
        525.00	     3964.5514	     13.080657	     8366.5708
        526.00	     4305.2061	     88.128363	     8367.0929
        527.00	     4960.9859	     111.38771	     8367.3973
        528.00	     5780.9531	     125.79893	     8367.7015
        529.00	     7076.8705	     19.173357	     8368.1149
        530.00	     7828.3992	     187.19776	     8368.6335
        531.00	     9288.3330	     220.58635	     8368.9385
        532.00	     10895.076	     251.40003	     8369.2426
        533.00	     13644.182	     40.473072	     8369.6557
        534.00	     15304.147	     395.50791	     8370.1749
        535.00	     18331.088	     480.52998	     8370.4795
        536.00	     22123.031	     562.70038	     8370.7837
        537.00	     27923.197	     41.298041	     8371.1969
        538.00	     31265.489	     824.38914	     8371.7155
        539.00	     37296.189	     916.84297	     8372.0201
        540.00	     44045.617	     986.91322	     8372.3247
        541.00	     54475.274	     58.155578	     8372.7379
        542.00	     60139.403	     1363.8324	     8373.2569
        543.00	     69840.726	     1443.2780	     8373.5610
        544.00	     80351.065	     1519.3416	     8373.8656
        545.00	     95140.656	     91.329608	     8374.2789
        546.00	     102602.22	     1722.3303	     8374.7978
        547.00	     114528.60	     1691.6348	     8375.1025
        548.00	     126706.85	     1653.5480	     8375.4065
        549.00	     141891.72	     57.786907	     8375.8199
        550.00	     148619.90	     1497.6235	     8376.3388
        551.00	     158467.13	     1331.1905	     8376.6434
        552.00	     167296.15	     1033.9185	     8376.9477
        553.00	     174636.33	     884.67797	     8377.2676
        554.00	     182423.94	     59.698264	     8377.6810
        555.00	     186063.98	     578.61668	     8378.1905
        556.00	     190695.19	     499.48314	     8378.4951
        557.00	     195891.27	     57.834460	     8378.9081
        558.00	     199403.68	     50.739682	     8379.4206
        559.00	     202310.22	     267.25002	     8379.9332
        560.00	     205185.32	     246.77400	     8380.2379
        561.00	     208697.26	     52.215739	     8380.6510
        562.00	     211029.33	     204.90740	     8381.1638
        563.00	     213810.50	     45.763569	     8381.4685
        564.00	     216329.56	     33.018807	     8381.9841
        565.00	     218378.03	     117.85171	     8382.4966
        566.00	     221026.94	     68.290273	     8382.8012
        567.00	     223232.53	     68.202254	     8383.2142
        568.00	     225153.66	     53.129684	     8383.7266
        569.00	     227707.26	     59.862296	     8384.0314
        570.00	     229465.12	     50.846074	     8384.4445
        571.00	     231647.23	     54.055407	     8384.9573
        572.00	     233609.27	     69.940394	     8385.4699
        573.00	     235670.29	     47.019542	     8385.7740
        574.00	     237554.35	     46.986077	     8386.1875
        575.00	     239939.54	     50.746035	     8386.7001
        576.00	     241482.18	     40.160783	     8387.0047
        577.00	     243605.27	     83.576771	     8387.4177
        578.00	     245670.01	     37.978810	     8387.9302
        579.00	     247722.84	     82.964397	     8388.2352
        580.00	     250055.19	     47.257268	     8388.7507
        581.00	     251951.19	     60.045395	     8389.0557
        582.00	     253592.62	     57.801289	     8389.5711
        583.00	     255525.70	     42.795175	     8390.0834
        584.00	     257517.40	     75.938161	     8390.3880
        585.00	     259236.83	     33.778506	     8390.8012
        586.00	     261358.96	     45.833200	     8391.3139
        587.00	     263088.48	     86.824575	     8391.6186
        588.00	     264632.42	     73.842072	     8392.1339
        589.00	     266693.49	     80.410291	     8392.4386
        590.00	     268306.55	     77.131531	     8392.8517
        591.00	     269887.98	     48.240608	     8393.3644
        592.00	     272064.55	     81.418888	     8393.8801
        593.00	     273293.85	     76.021937	     8394.1844
        594.00	     274798.78	     38.786617	     8394.5976
        595.00	     276584.64	     97.730540	     8395.1104
        596.00	     278673.74	     73.735831	     8395.4150
        597.00	     280347.47	     42.992724	     8395.8281
        598.00	     281804.16	     152.02474	     8396.3406
        599.00	     283499.41	     157.96027	     8396.6452
        600.00	     284828.71	     137.59022	     8396.9497
        601.00	     286038.32	     79.959685	     8397.3630
        602.00	     287731.54	     78.305402	     8397.8817
        603.00	     289418.29	     167.45926	     8398.3941
        604.00	     290302.66	     66.470947	     8398.6993
        605.00	     292104.57	     62.058277	     8399.2178
        606.00	     293386.96	     67.900651	     8399.7334
        607.00	     295156.44	     247.00682	     8400.2458
        608.00	     295623.17	     63.673831	     8400.5508
        609.00	     297927.09	     265.73080	     8401.0663
        610.00	     299524.57	     258.59015	     8401.3706
        611.00	     300069.45	     73.346600	     8401.7839
        612.00	     302170.16	     240.56005	     8402.2963
        613.00	     303626.02	     263.95633	     8402.6008
        614.00	     304140.66	     87.617283	     8403.0142
        615.00	     306098.27	     260.69116	     8403.5268
        616.00	     306712.64	     78.235531	     8403.8319
        617.00	     308616.80	     296.76259	     8404.3471
        618.00	     310358.07	     284.34573	     8404.6515
        619.00	     310705.34	     112.05176	     8404.9562
        620.00	     312442.31	     90.366968	     8405.4812
        621.00	     314185.28	     368.91084	     8405.9938
        622.00	     314755.81	     104.74304	     8406.2985
        623.00	     317063.91	     416.19586	     8406.8137
        624.00	     317960.55	     364.32988	     8407.1185
        625.00	     317963.27	     112.10949	     8407.5316
        626.00	     320188.47	     396.73642	     8408.0442
        627.00	     321377.42	     511.96767	     8408.3487
        628.00	     320507.30	     123.50937	     8408.7617
        629.00	     322950.35	     529.48897	     8409.2744
        630.00	     323146.50	     479.80842	     8409.5792
        631.00	     322134.63	     175.30091	     8409.9922
        632.00	     323882.26	     636.59281	     8410.5050
        633.00	     323873.05	     685.19526	     8410.8091
        634.00	     322146.31	     129.08369	     8411.2225
        635.00	     322591.83	     864.51614	     8411.7353
        636.00	     322022.22	     826.88616	     8412.0398
        637.00	     319083.43	     156.09389	     8412.4528
        638.00	     319560.05	     860.32083	     8412.9653
        639.00	     317961.82	     931.57215	     8413.2701
        640.00	     313520.30	     216.59550	     8413.6832
        641.00	     313720.46	     1119.2965	     8414.1957
        642.00	     308571.58	     217.01911	     8414.5007
        643.00	     307721.88	     1176.2330	     8415.0160
        644.00	     304058.89	     1243.8477	     8415.3204
        645.00	     298096.51	     265.60784	     8415.7337
        646.00	     293783.68	     215.71117	     8416.2465
        647.00	     292564.79	     1371.4736	     8416.7622
        648.00	     288038.16	     1258.5233	     8417.0664
        649.00	     280690.28	     257.75947	     8417.4798
        650.00	     279400.67	     1266.9934	     8417.9923
        651.00	     274588.91	     1348.7220	     8418.2968
        652.00	     266239.94	     261.81948	     8418.7101
        653.00	     264701.53	     1401.4588	     8419.2228
        654.00	     258838.08	     1520.9072	     8419.5274
        655.00	     252420.31	     1264.3804	     8419.8316
        656.00	     243276.12	     278.58772	     8420.2448
        657.00	     241147.63	     1436.3842	     8420.7638
        658.00	     235292.68	     1440.3674	     8421.0680
        659.00	     226096.03	     142.97895	     8421.4814
        660.00	     223480.09	     1489.1907	     8421.9942
        661.00	     213773.64	     171.16911	     8422.2989
        662.00	     211094.47	     1329.5257	     8422.8145
        663.00	     205901.71	     1281.5406	     8423.1186
        664.00	     197507.79	     179.55221	     8423.5319
        665.00	     194650.35	     1230.8760	     8424.0445
        666.00	     189440.32	     1243.8138	     8424.3491
        667.00	     181096.94	     230.34604	     8424.7622
        668.00	     178927.60	     1202.4887	     8425.2749
        669.00	     174005.27	     1244.8532	     8425.5792
        670.00	     171175.21	     1163.2685	     8425.9925
        671.00	     161053.72	     203.27457	     8426.2970
        672.00	     159430.81	     1158.5908	     8426.8127
        673.00	     154582.80	     960.17538	     8427.1173
        674.00	     147921.33	     258.41100	     8427.4218
        675.00	     145867.93	     1078.2729	     8427.9437
        676.00	     141819.15	     909.44631	     8428.2485
        677.00	     136463.68	     176.89331	     8428.6613
        678.00	     134661.08	     851.72681	     8429.1771
        679.00	     131103.24	     907.00766	     8429.4815
        680.00	     124994.38	     255.32426	     8429.8948
        681.00	     123653.94	     707.89638	     8430.4072
        682.00	     120540.57	     762.30789	     8430.7117
        683.00	     116137.46	     205.81817	     8431.1248
        684.00	     114410.47	     743.57979	     8431.6375
        685.00	     111682.50	     709.84817	     8431.9424
        686.00	     106974.90	     181.08905	     8432.3554
        687.00	     106015.75	     681.30101	     8432.8679
        688.00	     101852.84	     134.95039	     8433.1728
        689.00	     100801.45	     571.03644	     8433.6881
        690.00	     98119.233	     677.94981	     8433.9926
        691.00	     94453.059	     220.43344	     8434.4059
        692.00	     93956.094	     563.67125	     8434.9185
        693.00	     89963.328	     177.70582	     8435.2234
        694.00	     89385.979	     491.87434	     8435.7386
        695.00	     87326.719	     482.70020	     8436.0431
        696.00	     85119.000	     394.77306	     8436.3475
        697.00	     81744.086	     166.71808	     8436.7611
        698.00	     81351.467	     503.12380	     8437.2798
        699.00	     77751.776	     151.18677	     8437.5848
        700.00	     76328.990	     156.90313	     8438.1033
        701.00	     74303.574	     220.31874	     8438.6159
        702.00	     73574.236	     443.40015	     8439.1285
        703.00	     71746.180	     501.06065	     8439.4329
        704.00	     70055.176	     498.04356	     8439.7372
        705.00	     67613.020	     184.19055	     8440.1505
        706.00	     66778.778	     442.76852	     8440.6691
        707.00	     64553.624	     442.16311	     8440.9741
        708.00	     63046.658	     450.22252	     8441.2782
        709.00	     60471.964	     232.18750	     8441.6914
        710.00	     59790.735	     326.67240	     8442.2103
        711.00	     58321.734	     392.72029	     8442.5146
        712.00	     55751.051	     158.06835	     8442.8195
        713.00	     55191.282	     321.46918	     8443.3411
        714.00	     54033.230	     389.63523	     8443.6457
        715.00	     51564.282	     183.24099	     8444.0589
        716.00	     50811.092	     312.65258	     8444.5715
        717.00	     49845.460	     314.70074	     8444.8759
        718.00	     47609.457	     214.11621	     8445.2892
        719.00	     47127.350	     380.17096	     8445.8021
        720.00	     46175.855	     382.81408	     8446.1064
        721.00	     43438.671	     194.28474	     8446.5193
        722.00	     42982.190	     292.86540	     8447.0323
        723.00	     41786.528	     319.87512	     8447.3365
        724.00	     40303.313	     154.15218	     8447.7499
        725.00	     39569.711	     269.22428	     8448.2626
        726.00	     37956.606	     122.46522	     8448.5673
        727.00	     37332.768	     281.24043	     8449.0828
        728.00	     36359.584	     246.64534	     8449.3872
        729.00	     34829.979	     198.26951	     8449.8004
        730.00	     34225.800	     369.54533	     8450.3131
        731.00	     33121.968	     141.11232	     8450.6173
        732.00	     31357.604	     133.95996	     8451.0307
        733.00	     31382.405	     252.24275	     8451.5434
        734.00	     29841.552	     146.92493	     8451.8482
        735.00	     29676.429	     335.11253	     8452.3666
        736.00	     28897.331	     191.25354	     8452.6715
        737.00	     27348.092	     106.03907	     8453.0843
        738.00	     27076.081	     193.90706	     8453.6000
        739.00	     26262.670	     198.03024	     8453.9047
        740.00	     25148.722	     141.86577	     8454.3178
        741.00	     24929.355	     288.15184	     8454.8303
        742.00	     23973.960	     214.63719	     8455.1348
        743.00	     23387.861	     136.00093	     8455.5481
        744.00	     22863.176	     180.58850	     8456.0606
        745.00	     22330.008	     110.51658	     8456.3652
        746.00	     21267.332	     123.09483	     8456.7784
        747.00	     20987.020	     166.46678	     8457.2908
        748.00	     20608.010	     174.39122	     8457.5956
        749.00	     19485.637	     149.35445	     8458.0089
        750.00	     19194.426	     167.25471	     8458.5216
        751.00	     18682.124	     122.09640	     8458.8263
        752.00	     18574.968	     155.61943	     8459.3413
        753.00	     17931.035	     174.85089	     8459.6460
        754.00	     17320.264	     129.09801	     8460.0593
        755.00	     16964.319	     186.76009	     8460.5718
        756.00	     16468.235	     118.73608	     8460.8764
        757.00	     15793.807	     134.66214	     8461.2895
        758.00	     15878.079	     171.68168	     8461.8024
        759.00	     15547.052	     121.84553	     8462.1067
        760.00	     14972.659	     86.689843	     8462.5198
        761.00	     14912.165	     197.50938	     8463.0325
        762.00	     14446.903	     220.60656	     8463.3368
        763.00	     14045.976	     136.56406	     8463.7502
        764.00	     13565.584	     104.30462	     8464.2659
        765.00	     13479.478	     134.42510	     8464.5705
        766.00	     12931.670	     153.38667	     8464.9836
        767.00	     12974.514	     132.91710	     8465.4961
        768.00	     12372.866	     92.936539	     8465.8038
        769.00	     11907.734	     124.97951	     8466.3165
        770.00	     11910.979	     140.57367	     8466.8289
        771.00	     11899.454	     127.41148	     8467.1337
        772.00	     11374.370	     141.89308	     8467.5468
        773.00	     11030.856	     82.494314	     8468.0593
        774.00	     10850.299	     150.96213	     8468.5719
        775.00	     10781.356	     140.81694	     8468.8764
        776.00	     10448.664	     86.917492	     8469.2897
        777.00	     10095.673	     139.41169	     8469.8021
        778.00	     10036.735	     181.53301	     8470.1067
        779.00	     9846.8455	     138.08583	     8470.4113
        780.00	     9526.7047	     130.18853	     8470.8245
        781.00	     9215.5896	     112.45910	     8471.3433
        782.00	     9371.1812	     139.94127	     8471.6477
        783.00	     8958.5451	     186.47089	     8471.9524
        784.00	     8713.9079	     137.76599	     8472.3655
        785.00	     8569.8645	     90.962105	     8472.8842
        786.00	     8261.5317	     72.024527	     8473.1891
        787.00	     8379.9537	     101.59714	     8473.7077
        788.00	     7951.7190	     147.66060	     8474.0127
        789.00	     7987.6072	     96.618197	     8474.5308
        790.00	     7819.5432	     136.76709	     8474.8358
        791.00	     7809.5565	     86.956741	     8475.3513
        792.00	     7598.2436	     43.017877	     8475.6557
        793.00	     7303.2005	     139.31850	     8476.0689
        794.00	     7409.6000	     109.00764	     8476.5814
        795.00	     7134.2372	     103.56165	     8476.8863
        796.00	     6881.9969	     88.635652	     8477.2992
        797.00	     6433.4083	     78.799758	     8477.8116
        798.00	     6237.6582	     82.168042	     8478.1162
        799.00	     6022.2986	     112.09039	     8478.5294
        800.00	     5767.3283	     97.960188	     8479.0424
