Title=200220_em_NaOH-EtOH_2,0uM_Rho6G
Comment=
Signature=ISS_Experiment_Ver_1_0
Timestamp=Thu Feb 20 19:45:02 2020
Product=Vinci2
SoftwareVersion=BETA.2.4
BuildNumber=234
RealTimeStart=10961.3883154

AcquisitionType=Photon Counting
AcquisitionFormat=L
AcquisitionSide=Right
Detector Gains=(0.0, 0.0)

Measurable=Intensity
MaxIterations=10

RightEmissionWavelengthBandwidth=8.0
ExcitationWavelengthBandwidth=8.0
Visualization=Y:Intensity,X:EmissionWavelength,PlotType:2D


EmissionWavelength=type:numeric,unit:nm,from:400.0,to:800.0,step:1.0
ExcitationWavelength=type:numeric,unit:nm,fixed:510.0

Space=EmissionWavelength
Columns=EmissionWavelength,Intensity,IntensityStdError,RealTime
[Data]
        400.00	     68.768005	     3.0931639	     10964.394
        401.00	     71.307678	     1.4129680	     10964.969
        402.00	     74.139505	     1.9936871	     10965.273
        403.00	     71.602465	     2.5326582	     10965.578
        404.00	     71.153100	     1.6752026	     10965.991
        405.00	     77.908460	     2.2793581	     10966.509
        406.00	     72.916639	     2.1349184	     10966.814
        407.00	     72.713058	     1.9590821	     10967.119
        408.00	     75.794832	     2.4210767	     10967.532
        409.00	     73.707274	     2.4065314	     10967.836
        410.00	     77.334174	     1.8916215	     10968.358
        411.00	     78.479405	     2.7727203	     10968.663
        412.00	     78.524661	     3.4942984	     10968.967
        413.00	     76.509143	     2.3393135	     10969.380
        414.00	     78.017810	     2.5099224	     10969.899
        415.00	     78.034387	     1.6946675	     10970.204
        416.00	     76.070524	     2.5511622	     10970.508
        417.00	     77.157336	     2.1417516	     10970.921
        418.00	     76.258923	     1.9179926	     10971.440
        419.00	     76.244457	     2.1882186	     10971.956
        420.00	     78.454983	     1.3301336	     10972.261
        421.00	     80.553953	     1.9348907	     10972.776
        422.00	     78.531517	     1.3553070	     10973.081
        423.00	     77.649774	     1.2544734	     10973.494
        424.00	     80.101327	     2.6415859	     10974.006
        425.00	     78.479471	     1.9825940	     10974.311
        426.00	     82.423061	     2.2098536	     10974.724
        427.00	     81.814786	     3.4797836	     10975.237
        428.00	     81.267827	     2.2117261	     10975.541
        429.00	     82.962091	     2.7575814	     10975.955
        430.00	     81.680822	     2.3777978	     10976.467
        431.00	     80.928313	     1.8501663	     10976.772
        432.00	     85.913430	     1.9136867	     10977.287
        433.00	     85.218644	     2.8911232	     10977.592
        434.00	     86.182611	     2.3938901	     10978.107
        435.00	     89.118947	     1.6498639	     10978.412
        436.00	     94.789440	     3.0685292	     10978.825
        437.00	     89.137989	     1.4735730	     10979.341
        438.00	     89.101556	     2.6345307	     10979.658
        439.00	     92.167833	     2.4993972	     10980.161
        440.00	     94.981483	     1.9185476	     10980.466
        441.00	     91.951944	     2.3506092	     10980.879
        442.00	     100.18256	     3.9855395	     10981.392
        443.00	     102.04045	     2.2546196	     10981.696
        444.00	     105.84235	     2.3503283	     10982.212
        445.00	     101.78194	     1.6336997	     10982.517
        446.00	     98.172299	     1.7406436	     10983.032
        447.00	     106.33309	     2.5371689	     10983.336
        448.00	     108.50354	     2.8404617	     10983.750
        449.00	     112.47514	     2.5471378	     10984.262
        450.00	     113.51124	     2.7956302	     10984.567
        451.00	     121.53996	     1.6830608	     10984.871
        452.00	     124.72488	     1.7217337	     10985.284
        453.00	     125.70195	     3.1675297	     10985.803
        454.00	     133.54282	     4.2656134	     10986.108
        455.00	     134.67037	     3.2300858	     10986.412
        456.00	     141.59825	     3.4443578	     10986.825
        457.00	     150.12126	     4.1198871	     10987.344
        458.00	     164.54419	     3.3983653	     10987.649
        459.00	     158.94771	     3.2431854	     10987.953
        460.00	     183.96862	     3.8572438	     10988.366
        461.00	     195.12680	     4.3135878	     10988.885
        462.00	     212.16788	     3.7571085	     10989.190
        463.00	     236.51356	     4.2506309	     10989.708
        464.00	     249.49400	     3.2820923	     10990.013
        465.00	     283.43799	     3.8120698	     10990.426
        466.00	     295.78678	     6.7205661	     10990.942
        467.00	     322.39115	     3.9702771	     10991.247
        468.00	     331.61302	     5.1973696	     10991.659
        469.00	     383.45314	     6.1268162	     10991.964
        470.00	     399.47419	     7.8639930	     10992.483
        471.00	     424.51908	     8.5489391	     10992.788
        472.00	     463.77663	     4.4999213	     10993.201
        473.00	     482.25235	     4.5127498	     10993.713
        474.00	     507.85021	     5.2628131	     10994.018
        475.00	     527.32626	     5.2952993	     10994.534
        476.00	     560.24745	     6.2968503	     10994.838
        477.00	     593.00074	     6.0841450	     10995.251
        478.00	     611.31789	     7.5329654	     10995.767
        479.00	     627.79389	     6.4116750	     10996.071
        480.00	     648.50425	     6.1584138	     10996.485
        481.00	     659.95075	     7.1214327	     10996.997
        482.00	     672.49332	     7.7214735	     10997.302
        483.00	     693.03784	     4.7038742	     10997.715
        484.00	     729.18863	     5.6284725	     10998.019
        485.00	     749.25977	     6.5282521	     10998.535
        486.00	     760.20226	     7.8661811	     10998.840
        487.00	     794.80157	     12.599396	     10999.144
        488.00	     855.00038	     4.8498558	     10999.558
        489.00	     888.81078	     15.621042	     11000.076
        490.00	     997.58838	     21.877686	     11000.381
        491.00	     1286.7386	     10.047745	     11000.794
        492.00	     1628.8642	     80.879857	     11001.306
        493.00	     2491.8869	     161.63938	     11001.611
        494.00	     4856.5448	     10.648571	     11002.024
        495.00	     7724.2656	     17.477388	     11002.543
        496.00	     10235.147	     622.37235	     11003.053
        497.00	     14974.460	     736.62142	     11003.357
        498.00	     22923.435	     56.925631	     11003.770
        499.00	     27591.464	     1061.2428	     11004.283
        500.00	     38060.458	     65.092082	     11004.588
        501.00	     43843.261	     1164.6839	     11005.103
        502.00	     52571.954	     1094.6499	     11005.408
        503.00	     64572.434	     68.214814	     11005.821
        504.00	     70219.915	     1116.2985	     11006.333
        505.00	     78863.922	     1113.6126	     11006.638
        506.00	     89498.190	     85.442802	     11007.051
        507.00	     94765.013	     985.65507	     11007.564
        508.00	     101751.00	     874.71684	     11007.868
        509.00	     107302.88	     664.17981	     11008.172
        510.00	     113274.20	     81.402114	     11008.586
        511.00	     114947.84	     412.48067	     11009.105
        512.00	     116892.30	     247.81233	     11009.409
        513.00	     117305.41	     94.336658	     11009.714
        514.00	     116669.97	     152.77216	     11010.127
        515.00	     114596.89	     76.536116	     11010.431
        516.00	     112416.11	     381.32504	     11010.953
        517.00	     109439.71	     477.47070	     11011.258
        518.00	     105894.72	     456.42248	     11011.562
        519.00	     103460.75	     451.25891	     11011.975
        520.00	     97851.883	     82.185028	     11012.280
        521.00	     95910.261	     398.58578	     11012.805
        522.00	     93026.367	     458.69821	     11013.110
        523.00	     89199.937	     62.494793	     11013.523
        524.00	     87648.752	     367.72296	     11014.035
        525.00	     85344.331	     277.76661	     11014.340
        526.00	     83847.859	     196.50844	     11014.644
        527.00	     83615.558	     95.338426	     11015.057
        528.00	     84341.773	     155.99024	     11015.576
        529.00	     85881.601	     309.12706	     11015.881
        530.00	     88589.554	     435.87659	     11016.185
        531.00	     93021.913	     85.901983	     11016.598
        532.00	     95889.189	     665.64945	     11017.117
        533.00	     100654.81	     680.19864	     11017.422
        534.00	     105268.32	     647.84952	     11017.726
        535.00	     111400.30	     64.992675	     11018.139
        536.00	     114244.21	     586.19191	     11018.658
        537.00	     119542.20	     79.023998	     11018.963
        538.00	     122036.79	     485.62254	     11019.478
        539.00	     125635.05	     423.96329	     11019.783
        540.00	     129605.05	     101.70761	     11020.196
        541.00	     131706.09	     348.67118	     11020.712
        542.00	     134356.23	     262.24919	     11021.016
        543.00	     136982.75	     50.374345	     11021.429
        544.00	     138625.19	     193.71756	     11021.942
        545.00	     140261.99	     151.45295	     11022.247
        546.00	     142039.50	     102.19496	     11022.551
        547.00	     143082.71	     57.443884	     11022.964
        548.00	     144122.75	     67.853906	     11023.483
        549.00	     145104.69	     107.67713	     11023.788
        550.00	     145529.43	     77.237457	     11024.092
        551.00	     145363.17	     40.417375	     11024.505
        552.00	     145699.68	     96.089937	     11025.024
        553.00	     145643.65	     167.18631	     11025.329
        554.00	     145095.00	     177.56615	     11025.633
        555.00	     143931.55	     118.01330	     11026.046
        556.00	     143782.23	     309.16858	     11026.565
        557.00	     142899.24	     369.70072	     11026.870
        558.00	     141690.84	     373.91444	     11027.174
        559.00	     139509.62	     59.632104	     11027.587
        560.00	     138769.38	     430.78747	     11028.106
        561.00	     135644.78	     88.943445	     11028.414
        562.00	     134770.46	     500.67956	     11028.930
        563.00	     132652.78	     486.08765	     11029.234
        564.00	     129306.40	     122.56269	     11029.647
        565.00	     127951.21	     590.72990	     11030.160
        566.00	     125790.17	     456.38348	     11030.464
        567.00	     121936.93	     61.623694	     11030.878
        568.00	     120583.02	     591.02446	     11031.390
        569.00	     118298.80	     544.21027	     11031.695
        570.00	     113864.44	     96.777930	     11032.108
        571.00	     112697.08	     606.92013	     11032.621
        572.00	     109869.92	     517.47439	     11032.925
        573.00	     107195.10	     491.79432	     11033.229
        574.00	     103414.41	     91.101314	     11033.643
        575.00	     102273.21	     603.24674	     11034.162
        576.00	     98293.469	     98.646863	     11034.466
        577.00	     95975.838	     127.48256	     11034.982
        578.00	     94843.890	     514.57198	     11035.494
        579.00	     92556.357	     439.75669	     11035.799
        580.00	     89277.995	     79.515658	     11036.212
        581.00	     87121.810	     79.203985	     11036.725
        582.00	     86142.183	     414.82840	     11037.237
        583.00	     84166.431	     402.33013	     11037.542
        584.00	     82215.295	     415.17936	     11037.846
        585.00	     79278.148	     117.19385	     11038.260
        586.00	     78546.596	     375.98458	     11038.778
        587.00	     76685.262	     345.62484	     11039.083
        588.00	     74425.301	     97.551354	     11039.496
        589.00	     73861.275	     361.15000	     11040.009
        590.00	     71950.470	     326.70576	     11040.313
        591.00	     69736.164	     85.844636	     11040.726
        592.00	     69253.639	     325.47160	     11041.242
        593.00	     66784.672	     89.152810	     11041.547
        594.00	     66132.503	     328.48700	     11042.062
        595.00	     64917.929	     254.17660	     11042.367
        596.00	     62778.845	     59.040614	     11042.780
        597.00	     62474.213	     330.17615	     11043.293
        598.00	     60802.987	     309.32022	     11043.597
        599.00	     59658.966	     290.86831	     11043.902
        600.00	     57944.388	     69.031908	     11044.315
        601.00	     57279.593	     290.33434	     11044.833
        602.00	     56056.444	     264.29593	     11045.138
        603.00	     54047.908	     94.190441	     11045.551
        604.00	     53420.454	     269.48086	     11046.064
        605.00	     52395.316	     227.06311	     11046.369
        606.00	     50670.938	     115.32928	     11046.782
        607.00	     50125.363	     243.75351	     11047.294
        608.00	     48487.762	     57.756232	     11047.602
        609.00	     48037.501	     288.43969	     11048.118
        610.00	     46993.072	     223.97721	     11048.422
        611.00	     45332.361	     93.194344	     11048.835
        612.00	     44853.079	     277.31844	     11049.351
        613.00	     43888.376	     169.67095	     11049.656
        614.00	     42573.479	     43.438242	     11050.069
        615.00	     42030.963	     226.19581	     11050.581
        616.00	     41356.953	     188.10362	     11050.886
        617.00	     40332.961	     144.56415	     11051.190
        618.00	     39158.322	     98.997534	     11051.604
        619.00	     38534.983	     77.528035	     11052.122
        620.00	     38161.456	     213.12605	     11052.638
        621.00	     37434.746	     172.01991	     11052.943
        622.00	     36412.284	     81.867186	     11053.356
        623.00	     35835.503	     66.408581	     11053.869
        624.00	     35647.931	     159.39514	     11054.384
        625.00	     35026.727	     174.34594	     11054.689
        626.00	     34065.662	     58.074843	     11055.105
        627.00	     33950.624	     144.65887	     11055.614
        628.00	     32828.813	     70.067110	     11055.919
        629.00	     32901.221	     138.56738	     11056.435
        630.00	     32060.206	     29.030141	     11056.739
        631.00	     31753.907	     123.57767	     11057.255
        632.00	     31482.342	     118.49940	     11057.559
        633.00	     31140.863	     192.10394	     11057.972
        634.00	     30071.189	     66.874666	     11058.277
        635.00	     29982.912	     141.55240	     11058.793
        636.00	     29458.509	     131.49973	     11059.097
        637.00	     29181.804	     173.60212	     11059.402
        638.00	     28369.382	     74.864127	     11059.815
        639.00	     28221.479	     141.23616	     11060.334
        640.00	     27493.449	     34.067596	     11060.638
        641.00	     27095.047	     74.976966	     11061.157
        642.00	     26828.470	     119.47366	     11061.670
        643.00	     26389.687	     126.88057	     11061.974
        644.00	     25756.177	     54.196876	     11062.387
        645.00	     25381.096	     130.14429	     11062.903
        646.00	     24958.842	     123.22710	     11063.208
        647.00	     24224.125	     78.508835	     11063.621
        648.00	     23736.442	     91.072075	     11064.133
        649.00	     23481.651	     107.03601	     11064.646
        650.00	     23133.185	     152.37921	     11064.950
        651.00	     22156.131	     59.393645	     11065.364
        652.00	     22253.707	     156.24665	     11065.876
        653.00	     21301.556	     54.619251	     11066.181
        654.00	     21150.785	     119.62651	     11066.700
        655.00	     20540.911	     104.54281	     11067.004
        656.00	     19969.527	     57.487128	     11067.417
        657.00	     19822.516	     113.92272	     11067.933
        658.00	     19287.783	     127.98988	     11068.237
        659.00	     18460.284	     55.048368	     11068.651
        660.00	     18325.577	     121.89289	     11069.163
        661.00	     17744.184	     145.59902	     11069.468
        662.00	     17215.853	     63.612486	     11069.881
        663.00	     16722.048	     58.491319	     11070.397
        664.00	     16602.688	     121.93772	     11070.909
        665.00	     16231.038	     121.05721	     11071.214
        666.00	     15754.047	     109.13727	     11071.518
        667.00	     15152.086	     78.261735	     11071.932
        668.00	     14824.997	     95.477155	     11072.447
        669.00	     14483.488	     65.614546	     11072.752
        670.00	     13956.945	     63.584118	     11073.271
        671.00	     13616.658	     54.837403	     11073.784
        672.00	     13449.835	     115.09910	     11074.299
        673.00	     12963.763	     76.445738	     11074.604
        674.00	     12821.501	     85.560195	     11075.119
        675.00	     12485.854	     104.07816	     11075.424
        676.00	     11918.051	     51.660767	     11075.837
        677.00	     11770.663	     104.73127	     11076.350
        678.00	     11317.899	     52.415929	     11076.654
        679.00	     10993.165	     51.807337	     11077.170
        680.00	     10642.336	     73.947203	     11077.683
        681.00	     10481.991	     44.942319	     11078.195
        682.00	     10325.931	     68.300291	     11078.708
        683.00	     10102.354	     80.949662	     11079.012
        684.00	     9707.3054	     58.604925	     11079.425
        685.00	     9582.0819	     68.151693	     11079.941
        686.00	     9144.7777	     46.830142	     11080.246
        687.00	     8926.2887	     39.687118	     11080.761
        688.00	     8852.4494	     95.675167	     11081.274
        689.00	     8718.4453	     86.429349	     11081.578
        690.00	     8259.8740	     53.212939	     11081.992
        691.00	     8073.9537	     52.470184	     11082.504
        692.00	     7900.7546	     53.803147	     11083.017
        693.00	     7808.1330	     53.306187	     11083.529
        694.00	     7623.0064	     62.255005	     11083.834
        695.00	     7198.1172	     75.290478	     11084.247
        696.00	     7247.9715	     80.532898	     11084.760
        697.00	     7004.0337	     65.749978	     11085.064
        698.00	     6792.1121	     71.255378	     11085.477
        699.00	     6886.6896	     85.598426	     11085.990
        700.00	     6525.7832	     70.525934	     11086.295
        701.00	     6397.6961	     54.010800	     11086.708
        702.00	     6339.7368	     100.21188	     11087.221
        703.00	     6147.3286	     58.622602	     11087.525
        704.00	     6054.0056	     88.662718	     11087.938
        705.00	     5698.8421	     50.911572	     11088.243
        706.00	     5789.7687	     51.241610	     11088.762
        707.00	     5583.0060	     53.338405	     11089.066
        708.00	     5512.4873	     58.636220	     11089.581
        709.00	     5439.7346	     79.910669	     11089.886
        710.00	     5071.5594	     57.658601	     11090.299
        711.00	     5058.6470	     77.410489	     11090.815
        712.00	     4885.2049	     58.191051	     11091.120
        713.00	     4822.6274	     71.399991	     11091.533
        714.00	     4764.3569	     52.160348	     11092.045
        715.00	     4549.3541	     47.039053	     11092.350
        716.00	     4508.4749	     62.853330	     11092.866
        717.00	     4455.4078	     57.293667	     11093.378
        718.00	     4358.1104	     49.119088	     11093.686
        719.00	     4271.1695	     58.675311	     11094.199
        720.00	     4095.3240	     58.948197	     11094.503
        721.00	     3937.5292	     43.280755	     11095.019
        722.00	     4022.5750	     47.808216	     11095.531
        723.00	     3695.9074	     56.981991	     11095.839
        724.00	     3746.4454	     37.527335	     11096.354
        725.00	     3677.0127	     71.126791	     11096.659
        726.00	     3525.7401	     40.848327	     11097.072
        727.00	     3606.9535	     60.781526	     11097.588
        728.00	     3365.3431	     33.916834	     11097.893
        729.00	     3305.4708	     50.214278	     11098.408
        730.00	     3278.4686	     54.356617	     11098.713
        731.00	     3283.2619	     65.902981	     11099.228
        732.00	     3185.3000	     43.099107	     11099.533
        733.00	     3043.9429	     57.522706	     11100.049
        734.00	     2934.9773	     77.017133	     11100.353
        735.00	     2879.5008	     52.759344	     11100.766
        736.00	     2734.2750	     35.674999	     11101.282
        737.00	     2805.3517	     37.652022	     11101.587
        738.00	     2596.8903	     45.636423	     11102.000
        739.00	     2601.1737	     58.206273	     11102.513
        740.00	     2518.0646	     31.060031	     11103.025
        741.00	     2517.4756	     42.545107	     11103.538
        742.00	     2355.1847	     48.286797	     11103.842
        743.00	     2346.4660	     51.341375	     11104.358
        744.00	     2364.0539	     56.321885	     11104.662
        745.00	     2256.1346	     48.311829	     11105.076
        746.00	     2177.7764	     59.097262	     11105.588
        747.00	     2206.9550	     69.788198	     11105.893
        748.00	     2084.3338	     50.685615	     11106.306
        749.00	     2042.6343	     29.226022	     11106.819
        750.00	     2096.1409	     45.382751	     11107.331
        751.00	     2007.9295	     51.831711	     11107.636
        752.00	     1929.5016	     43.032046	     11108.049
        753.00	     1942.0286	     61.232804	     11108.561
        754.00	     1841.7558	     60.845538	     11108.866
        755.00	     1764.1789	     39.865475	     11109.279
        756.00	     1845.6337	     38.236261	     11109.792
        757.00	     1678.1803	     56.010443	     11110.096
        758.00	     1699.5072	     62.657757	     11110.401
        759.00	     1664.1191	     52.816119	     11110.814
        760.00	     1598.2084	     67.046167	     11111.333
        761.00	     1645.7494	     63.295140	     11111.637
        762.00	     1632.8964	     43.189819	     11111.942
        763.00	     1548.6198	     45.648039	     11112.355
        764.00	     1470.3665	     46.554098	     11112.874
        765.00	     1559.0635	     55.722969	     11113.178
        766.00	     1496.6029	     50.929022	     11113.483
        767.00	     1498.9984	     42.052060	     11114.005
        768.00	     1432.1109	     44.709998	     11114.309
        769.00	     1365.3180	     55.697963	     11114.722
        770.00	     1474.7168	     47.419716	     11115.238
        771.00	     1438.5792	     51.646453	     11115.542
        772.00	     1276.7945	     65.950201	     11115.956
        773.00	     1337.9886	     63.274703	     11116.469
        774.00	     1278.9250	     65.555818	     11116.773
        775.00	     1139.7548	     30.922114	     11117.186
        776.00	     1194.8495	     71.520030	     11117.699
        777.00	     1176.9265	     58.886503	     11118.003
        778.00	     1197.7456	     45.218495	     11118.308
        779.00	     1114.3017	     51.415678	     11118.721
        780.00	     1107.9864	     51.604520	     11119.240
        781.00	     1027.1290	     45.549685	     11119.544
        782.00	     1051.2566	     69.823431	     11120.063
        783.00	     1063.9048	     60.515872	     11120.368
        784.00	     975.17342	     68.718480	     11120.883
        785.00	     987.31501	     69.389609	     11121.188
        786.00	     1055.8443	     73.260951	     11121.492
        787.00	     884.41185	     54.427318	     11121.905
        788.00	     968.84594	     67.385000	     11122.424
        789.00	     1030.9075	     92.991594	     11122.729
        790.00	     829.56910	     78.746439	     11123.142
        791.00	     888.64393	     50.981337	     11123.655
        792.00	     888.18857	     63.614910	     11123.959
        793.00	     839.82420	     49.397572	     11124.372
        794.00	     802.40000	     66.144623	     11124.885
        795.00	     947.57793	     39.381738	     11125.398
        796.00	     832.07037	     41.440132	     11125.910
        797.00	     887.34036	     58.674190	     11126.214
        798.00	     745.39905	     49.498117	     11126.628
        799.00	     733.25535	     57.651830	     11127.141
        800.00	     711.38852	     39.992079	     11127.445
