Sample:	
Run Date:	20-02-2020 21:01:16
Operator:	Hitachi spectro
Comment:	

Instrument
Model:	U-2010 Spectrophotometer
Serial Number:	9709-014
ROM Version:	2550 00

Instrument Parameters
Measurement Type:	Wavelength Scan
Data Mode:	Abs
Starting Wavelength:	700.0 nm
Ending Wavelength:	200.0 nm
Scan Speed:	100 nm/min
Sampling Interval:	1.0 nm
Slit Width:	2 nm
Lamp Change:	370.0 nm
Baseline Correction:	System
Response:	Medium

Peak Integration
Area Method:	Rectangular
Threshold:	10.0% based on 1 highest peaks
Peak Width:	10.0 nm
Peaks
Peak #	Start (nm)	Apex (nm)	End (nm)	Height (Abs)	Area (Abs*nm)
1	249.0	236.0	202.0	2.0329	51.8873

Data Points
nm	Abs
600.0	0.0089
599.0	0.0094
598.0	0.0100
597.0	0.0107
596.0	0.0115
595.0	0.0122
594.0	0.0129
593.0	0.0138
592.0	0.0147
591.0	0.0154
590.0	0.0164
589.0	0.0176
588.0	0.0186
587.0	0.0197
586.0	0.0210
585.0	0.0223
584.0	0.0235
583.0	0.0248
582.0	0.0262
581.0	0.0278
580.0	0.0293
579.0	0.0308
578.0	0.0322
577.0	0.0339
576.0	0.0356
575.0	0.0373
574.0	0.0390
573.0	0.0408
572.0	0.0426
571.0	0.0446
570.0	0.0465
569.0	0.0483
568.0	0.0502
567.0	0.0522
566.0	0.0540
565.0	0.0559
564.0	0.0579
563.0	0.0597
562.0	0.0615
561.0	0.0633
560.0	0.0652
559.0	0.0669
558.0	0.0684
557.0	0.0699
556.0	0.0714
555.0	0.0729
554.0	0.0744
553.0	0.0759
552.0	0.0773
551.0	0.0786
550.0	0.0797
549.0	0.0809
548.0	0.0819
547.0	0.0828
546.0	0.0837
545.0	0.0846
544.0	0.0854
543.0	0.0860
542.0	0.0866
541.0	0.0869
540.0	0.0875
539.0	0.0879
538.0	0.0884
537.0	0.0884
536.0	0.0885
535.0	0.0887
534.0	0.0887
533.0	0.0887
532.0	0.0885
531.0	0.0884
530.0	0.0884
529.0	0.0882
528.0	0.0879
527.0	0.0876
526.0	0.0870
525.0	0.0867
524.0	0.0863
523.0	0.0858
522.0	0.0852
521.0	0.0847
520.0	0.0842
519.0	0.0835
518.0	0.0828
517.0	0.0819
516.0	0.0811
515.0	0.0805
514.0	0.0796
513.0	0.0786
512.0	0.0778
511.0	0.0768
510.0	0.0757
509.0	0.0747
508.0	0.0738
507.0	0.0727
506.0	0.0716
505.0	0.0705
504.0	0.0695
503.0	0.0684
502.0	0.0671
501.0	0.0658
500.0	0.0646
499.0	0.0635
498.0	0.0622
497.0	0.0610
496.0	0.0597
495.0	0.0585
494.0	0.0574
493.0	0.0562
492.0	0.0551
491.0	0.0539
490.0	0.0527
489.0	0.0514
488.0	0.0501
487.0	0.0490
486.0	0.0478
485.0	0.0466
484.0	0.0455
483.0	0.0443
482.0	0.0431
481.0	0.0421
480.0	0.0410
479.0	0.0398
478.0	0.0389
477.0	0.0379
476.0	0.0368
475.0	0.0358
474.0	0.0348
473.0	0.0337
472.0	0.0329
471.0	0.0319
470.0	0.0309
469.0	0.0300
468.0	0.0290
467.0	0.0281
466.0	0.0273
465.0	0.0267
464.0	0.0259
463.0	0.0251
462.0	0.0242
461.0	0.0234
460.0	0.0226
459.0	0.0220
458.0	0.0214
457.0	0.0206
456.0	0.0200
455.0	0.0194
454.0	0.0189
453.0	0.0183
452.0	0.0176
451.0	0.0171
450.0	0.0164
449.0	0.0159
448.0	0.0153
447.0	0.0149
446.0	0.0143
445.0	0.0140
444.0	0.0136
443.0	0.0130
442.0	0.0126
441.0	0.0122
440.0	0.0120
439.0	0.0117
438.0	0.0114
437.0	0.0110
436.0	0.0106
435.0	0.0103
434.0	0.0100
433.0	0.0097
432.0	0.0097
431.0	0.0093
430.0	0.0090
429.0	0.0088
428.0	0.0087
427.0	0.0083
426.0	0.0080
425.0	0.0078
424.0	0.0078
423.0	0.0078
422.0	0.0077
421.0	0.0075
420.0	0.0073
419.0	0.0070
418.0	0.0067
417.0	0.0066
416.0	0.0066
415.0	0.0066
414.0	0.0066
413.0	0.0065
412.0	0.0064
411.0	0.0064
410.0	0.0062
409.0	0.0061
408.0	0.0061
407.0	0.0061
406.0	0.0061
405.0	0.0059
404.0	0.0058
403.0	0.0058
402.0	0.0058
401.0	0.0056
400.0	0.0056
399.0	0.0056
398.0	0.0056
397.0	0.0056
396.0	0.0055
395.0	0.0056
394.0	0.0056
393.0	0.0056
392.0	0.0055
391.0	0.0055
390.0	0.0055
389.0	0.0055
388.0	0.0052
387.0	0.0051
386.0	0.0051
385.0	0.0050
384.0	0.0049
383.0	0.0049
382.0	0.0049
381.0	0.0047
380.0	0.0041
379.0	0.0035
378.0	0.0031
377.0	0.0033
376.0	0.0035
375.0	0.0033
374.0	0.0029
373.0	0.0032
372.0	0.0041
371.0	0.0041
370.0	0.0037
369.0	0.0033
368.0	0.0033
367.0	0.0033
366.0	0.0032
365.0	0.0032
364.0	0.0033
363.0	0.0034
362.0	0.0033
361.0	0.0033
360.0	0.0033
359.0	0.0032
358.0	0.0034
357.0	0.0035
356.0	0.0035
355.0	0.0035
354.0	0.0035
353.0	0.0035
352.0	0.0035
351.0	0.0035
350.0	0.0036
349.0	0.0038
348.0	0.0041
347.0	0.0043
346.0	0.0047
345.0	0.0049
344.0	0.0051
343.0	0.0055
342.0	0.0058
341.0	0.0061
340.0	0.0064
339.0	0.0065
338.0	0.0066
337.0	0.0068
336.0	0.0073
335.0	0.0076
334.0	0.0078
333.0	0.0079
332.0	0.0082
331.0	0.0087
330.0	0.0091
329.0	0.0094
328.0	0.0097
327.0	0.0100
326.0	0.0104
325.0	0.0107
324.0	0.0109
323.0	0.0112
322.0	0.0116
321.0	0.0120
320.0	0.0122
319.0	0.0125
318.0	0.0127
317.0	0.0131
316.0	0.0136
315.0	0.0138
314.0	0.0139
313.0	0.0141
312.0	0.0146
311.0	0.0150
310.0	0.0152
309.0	0.0156
308.0	0.0159
307.0	0.0162
306.0	0.0164
305.0	0.0166
304.0	0.0169
303.0	0.0170
302.0	0.0170
301.0	0.0169
300.0	0.0169
299.0	0.0167
298.0	0.0166
297.0	0.0164
296.0	0.0162
295.0	0.0161
294.0	0.0161
293.0	0.0157
292.0	0.0154
291.0	0.0152
290.0	0.0152
289.0	0.0151
288.0	0.0151
287.0	0.0151
286.0	0.0152
285.0	0.0156
284.0	0.0159
283.0	0.0162
282.0	0.0169
281.0	0.0176
280.0	0.0184
279.0	0.0194
278.0	0.0206
277.0	0.0222
276.0	0.0241
275.0	0.0265
274.0	0.0296
273.0	0.0336
272.0	0.0384
271.0	0.0440
270.0	0.0507
269.0	0.0581
268.0	0.0657
267.0	0.0733
266.0	0.0801
265.0	0.0858
264.0	0.0902
263.0	0.0931
262.0	0.0947
261.0	0.0956
260.0	0.0954
259.0	0.0949
258.0	0.0945
257.0	0.0947
256.0	0.0959
255.0	0.0981
254.0	0.1019
253.0	0.1083
252.0	0.1178
251.0	0.1318
250.0	0.1522
249.0	0.1813
248.0	0.2219
247.0	0.2779
246.0	0.3532
245.0	0.4543
244.0	0.5879
243.0	0.7635
242.0	0.9923
241.0	1.2840
240.0	1.6345
239.0	2.0315
238.0	2.4089
237.0	2.6576
236.0	2.6990
235.0	2.6990
234.0	2.6990
233.0	2.6990
232.0	2.6990
231.0	2.6990
230.0	2.6990
229.0	2.6990
228.0	2.6990
227.0	2.6990
226.0	2.6576
225.0	2.6576
224.0	2.6576
223.0	2.6576
222.0	2.6198
221.0	2.6198
220.0	2.6198
219.0	2.6198
218.0	2.6198
217.0	2.6198
216.0	2.5686
215.0	2.5686
214.0	2.5376
213.0	2.4949
212.0	2.4685
211.0	2.4685
210.0	2.4318
209.0	2.3565
208.0	2.3098
207.0	2.2924
206.0	2.2676
205.0	2.2518
204.0	2.2147
203.0	2.1487
202.0	2.0915
201.0	2.0458
200.0	2.0088
