Title=200220_em_MeCN_2,0uM_NRA1
Comment=
Signature=ISS_Experiment_Ver_1_0
Timestamp=Thu Feb 20 14:42:53 2020
Product=Vinci2
SoftwareVersion=BETA.2.4
BuildNumber=234
RealTimeStart=5329.25840205

AcquisitionType=Photon Counting
AcquisitionFormat=L
AcquisitionSide=Right
Detector Gains=(0.0, 0.0)

Measurable=Intensity
MaxIterations=10

RightEmissionWavelengthBandwidth=8.0
ExcitationWavelengthBandwidth=8.0
Visualization=Y:Intensity,X:EmissionWavelength,PlotType:2D


EmissionWavelength=type:numeric,unit:nm,from:400.0,to:800.0,step:1.0
ExcitationWavelength=type:numeric,unit:nm,fixed:553.0

Space=EmissionWavelength
Columns=EmissionWavelength,Intensity,IntensityStdError,RealTime
[Data]
        400.00	     165.15387	     2.8895926	     5332.1317
        401.00	     167.96256	     1.6163493	     5332.7062
        402.00	     165.08824	     2.5538975	     5333.0109
        403.00	     160.41420	     4.4140593	     5333.3152
        404.00	     162.22815	     3.4860367	     5333.7286
        405.00	     158.50656	     3.1793210	     5334.2475
        406.00	     162.94869	     2.3502550	     5334.5517
        407.00	     159.11515	     2.7128640	     5334.9652
        408.00	     159.13967	     1.5621509	     5335.4778
        409.00	     158.47177	     2.0903520	     5335.7824
        410.00	     151.11093	     3.5684969	     5336.1954
        411.00	     160.08620	     2.8605960	     5336.7080
        412.00	     156.43709	     3.1129866	     5337.0124
        413.00	     150.70464	     3.4944302	     5337.4258
        414.00	     153.49403	     2.9722838	     5337.9384
        415.00	     154.31851	     2.6140269	     5338.2431
        416.00	     155.96392	     1.9278580	     5338.7587
        417.00	     156.09102	     2.7746985	     5339.0631
        418.00	     151.10353	     2.6395297	     5339.4763
        419.00	     153.47109	     2.5956759	     5339.9919
        420.00	     155.60543	     4.0413051	     5340.2966
        421.00	     154.28792	     4.2322518	     5340.7097
        422.00	     160.58349	     2.7677931	     5341.2224
        423.00	     155.25351	     2.1238165	     5341.5270
        424.00	     155.43527	     3.8240551	     5342.0426
        425.00	     152.63367	     2.8912272	     5342.3471
        426.00	     155.41774	     1.8918540	     5342.7601
        427.00	     153.69924	     2.7519660	     5343.2727
        428.00	     157.13023	     1.9353821	     5343.5771
        429.00	     156.30404	     3.0504144	     5343.9905
        430.00	     160.61784	     3.1813270	     5344.5033
        431.00	     157.21937	     3.7648667	     5344.8074
        432.00	     159.49953	     2.7674918	     5345.1121
        433.00	     164.46867	     2.6784890	     5345.5253
        434.00	     160.20274	     3.1434693	     5346.0442
        435.00	     150.89187	     1.9421715	     5346.3490
        436.00	     154.77338	     1.4731222	     5346.7617
        437.00	     153.89369	     2.5737948	     5347.0664
        438.00	     158.63836	     4.0628638	     5347.5821
        439.00	     160.35704	     2.8702659	     5347.8868
        440.00	     159.08731	     2.6969002	     5348.2998
        441.00	     156.80329	     2.5932235	     5348.8122
        442.00	     157.72696	     3.8320564	     5349.1167
        443.00	     158.64486	     2.7457666	     5349.5300
        444.00	     162.76224	     1.2231496	     5350.0427
        445.00	     163.92015	     2.4746399	     5350.3473
        446.00	     162.60098	     4.2711347	     5350.6515
        447.00	     167.16620	     4.1336914	     5351.0649
        448.00	     167.70557	     3.8338228	     5351.5837
        449.00	     164.91133	     2.8887964	     5351.8881
        450.00	     164.54435	     3.5071686	     5352.1925
        451.00	     173.83928	     2.6120700	     5352.5127
        452.00	     172.35735	     1.1883279	     5352.9259
        453.00	     172.69261	     3.8942430	     5353.4352
        454.00	     168.67752	     2.8591790	     5353.7403
        455.00	     170.87291	     3.7433639	     5354.2586
        456.00	     179.31952	     4.2242809	     5354.5631
        457.00	     172.55558	     3.1486363	     5354.8675
        458.00	     179.46202	     4.0070590	     5355.2809
        459.00	     172.47800	     3.5458181	     5355.7998
        460.00	     178.02044	     2.9436907	     5356.1043
        461.00	     180.60177	     4.2301450	     5356.4088
        462.00	     181.26260	     2.9604282	     5356.8218
        463.00	     179.72655	     4.3148877	     5357.3408
        464.00	     183.57201	     4.5178294	     5357.6452
        465.00	     185.18605	     3.3481793	     5357.9495
        466.00	     183.79251	     2.5902227	     5358.3629
        467.00	     190.21436	     2.9939515	     5358.8816
        468.00	     188.14903	     2.9288905	     5359.1863
        469.00	     186.92052	     4.0163150	     5359.4908
        470.00	     197.56954	     4.5567595	     5360.0124
        471.00	     193.43496	     3.3106062	     5360.3172
        472.00	     198.87880	     3.3355599	     5360.6216
        473.00	     201.83534	     5.2458316	     5361.0348
        474.00	     193.80077	     4.8166548	     5361.5535
        475.00	     197.18193	     3.9198853	     5361.8612
        476.00	     206.57460	     3.1851985	     5362.3738
        477.00	     205.03103	     2.9042433	     5362.6785
        478.00	     212.24204	     2.3273731	     5363.0913
        479.00	     206.21676	     3.6260907	     5363.6042
        480.00	     216.89808	     3.6074144	     5363.9087
        481.00	     218.48514	     3.9944296	     5364.3219
        482.00	     214.36605	     4.0399637	     5364.8346
        483.00	     217.33556	     2.3140612	     5365.1388
        484.00	     220.86701	     5.7032998	     5365.5521
        485.00	     222.64573	     4.8350842	     5366.0645
        486.00	     223.69353	     2.1345663	     5366.3691
        487.00	     226.14852	     4.0442358	     5366.7825
        488.00	     230.19002	     3.7444021	     5367.2951
        489.00	     230.30749	     4.7079337	     5367.5998
        490.00	     242.90773	     5.2835597	     5368.1186
        491.00	     239.57542	     4.4413055	     5368.6310
        492.00	     242.82428	     3.4527171	     5368.9358
        493.00	     250.31269	     3.7710828	     5369.2401
        494.00	     248.24701	     4.4873663	     5369.5598
        495.00	     252.31050	     4.4839732	     5369.8643
        496.00	     256.17548	     2.8268537	     5370.2775
        497.00	     262.22792	     2.5382666	     5370.7935
        498.00	     274.41403	     4.9606026	     5371.0982
        499.00	     282.51030	     3.6880106	     5371.6137
        500.00	     294.06352	     4.2321794	     5371.9185
        501.00	     301.69957	     3.3226165	     5372.4336
        502.00	     312.12257	     3.7516797	     5372.7385
        503.00	     319.73278	     5.9716263	     5373.1513
        504.00	     342.66368	     3.8992001	     5373.4560
        505.00	     342.23649	     3.6711719	     5373.9718
        506.00	     364.64426	     7.0169181	     5374.2760
        507.00	     364.00408	     5.5573178	     5374.5806
        508.00	     369.04192	     7.4463562	     5374.9939
        509.00	     382.65825	     6.4518711	     5375.5128
        510.00	     392.06556	     6.9437744	     5375.8173
        511.00	     405.78549	     5.4262548	     5376.1215
        512.00	     408.62179	     6.7866725	     5376.5349
        513.00	     417.94549	     4.4718884	     5377.0538
        514.00	     411.76489	     5.5002726	     5377.3584
        515.00	     425.79530	     9.7230429	     5377.6628
        516.00	     453.26896	     2.8637505	     5378.0761
        517.00	     462.43558	     7.0784672	     5378.5947
        518.00	     474.47005	     5.2683709	     5378.8993
        519.00	     492.31195	     7.9002146	     5379.2035
        520.00	     517.72042	     4.4524684	     5379.6170
        521.00	     543.93461	     12.613955	     5380.1356
        522.00	     567.93227	     10.633452	     5380.4404
        523.00	     598.40674	     9.5123580	     5380.7449
        524.00	     634.49318	     3.0770003	     5381.1579
        525.00	     656.39446	     5.9950513	     5381.6769
        526.00	     700.53059	     11.915771	     5381.9813
        527.00	     739.94600	     11.926538	     5382.2858
        528.00	     815.47344	     8.0401505	     5382.6987
        529.00	     861.79259	     11.810431	     5383.2177
        530.00	     928.01355	     8.9389292	     5383.5224
        531.00	     1021.4585	     12.959052	     5383.9353
        532.00	     1086.2814	     16.996297	     5384.4480
        533.00	     1242.7821	     23.601314	     5384.7524
        534.00	     1527.8050	     13.427328	     5385.1657
        535.00	     1706.4267	     48.600906	     5385.6784
        536.00	     2057.0252	     57.975001	     5385.9829
        537.00	     2646.9914	     12.691182	     5386.3960
        538.00	     3004.5032	     83.246745	     5386.9085
        539.00	     3779.0127	     26.505707	     5387.2134
        540.00	     4433.4223	     19.242584	     5387.7322
        541.00	     4887.6152	     117.48448	     5388.2444
        542.00	     5676.5241	     103.57363	     5388.5490
        543.00	     6512.7985	     116.67252	     5388.8537
        544.00	     7664.7814	     21.355004	     5389.2668
        545.00	     8230.5550	     141.46600	     5389.7855
        546.00	     9132.5160	     135.92167	     5390.0901
        547.00	     9888.0405	     142.98942	     5390.5031
        548.00	     11572.170	     42.326991	     5390.8078
        549.00	     12215.335	     152.31136	     5391.3267
        550.00	     13233.673	     171.56827	     5391.6310
        551.00	     14483.189	     37.151310	     5392.0443
        552.00	     15009.283	     116.72940	     5392.5598
        553.00	     15978.102	     123.50093	     5392.8644
        554.00	     16935.236	     48.882034	     5393.2777
        555.00	     17571.342	     139.59554	     5393.7902
        556.00	     18506.205	     127.62831	     5394.0949
        557.00	     19716.760	     48.090980	     5394.5081
        558.00	     20454.237	     178.97511	     5395.0207
        559.00	     21958.382	     66.047605	     5395.3254
        560.00	     22794.995	     185.24991	     5395.8440
        561.00	     24407.242	     247.43794	     5396.1487
        562.00	     26643.798	     28.859077	     5396.5615
        563.00	     28026.908	     299.44334	     5397.0744
        564.00	     30344.347	     385.64582	     5397.3789
        565.00	     33014.707	     351.43706	     5397.6834
        566.00	     37153.855	     72.956793	     5398.0965
        567.00	     39293.321	     496.74969	     5398.6154
        568.00	     43208.546	     526.37127	     5398.9200
        569.00	     49174.689	     38.075329	     5399.3330
        570.00	     52398.034	     695.34261	     5399.8457
        571.00	     59620.645	     52.735218	     5400.1504
        572.00	     63580.621	     869.97774	     5400.6657
        573.00	     71866.384	     76.051215	     5400.9704
        574.00	     76428.632	     966.61514	     5401.4861
        575.00	     86220.407	     102.70117	     5401.7908
        576.00	     91362.319	     1113.7980	     5402.3061
        577.00	     99232.659	     1064.8272	     5402.6107
        578.00	     107851.30	     1139.4032	     5402.9150
        579.00	     119360.17	     102.19035	     5403.3284
        580.00	     128527.89	     94.366926	     5403.8475
        581.00	     134514.99	     1331.6027	     5404.3631
        582.00	     143893.19	     1232.2746	     5404.6675
        583.00	     156066.43	     110.69597	     5405.0807
        584.00	     162520.90	     1285.6730	     5405.5933
        585.00	     174540.73	     134.75497	     5405.8980
        586.00	     180576.63	     1209.2599	     5406.4164
        587.00	     189752.41	     1154.8943	     5406.7212
        588.00	     198290.09	     1012.3887	     5407.0256
        589.00	     209236.80	     87.631497	     5407.4387
        590.00	     214567.63	     861.26504	     5407.9575
        591.00	     221824.15	     812.33642	     5408.2619
        592.00	     230797.04	     87.590625	     5408.6753
        593.00	     234811.96	     698.77923	     5409.1912
        594.00	     242161.83	     64.989922	     5409.4957
        595.00	     246050.81	     489.33416	     5410.0113
        596.00	     251462.78	     462.25952	     5410.3155
        597.00	     256523.93	     442.69268	     5410.6203
        598.00	     261616.01	     100.80355	     5411.0335
        599.00	     266001.94	     40.293614	     5411.5524
        600.00	     269322.32	     291.96411	     5412.0681
        601.00	     273143.19	     236.74702	     5412.3724
        602.00	     278168.11	     74.308316	     5412.7857
        603.00	     281217.54	     243.13241	     5413.2984
        604.00	     285494.79	     92.166503	     5413.6032
        605.00	     289066.08	     190.64481	     5414.1217
        606.00	     292881.87	     171.09364	     5414.4261
        607.00	     296441.48	     119.53355	     5414.7306
        608.00	     300333.93	     59.533784	     5415.1439
        609.00	     303862.31	     161.33129	     5415.6627
        610.00	     307772.78	     107.49227	     5415.9673
        611.00	     311696.49	     79.896199	     5416.3804
        612.00	     315440.82	     69.371744	     5416.8962
        613.00	     318954.88	     109.21092	     5417.4087
        614.00	     322265.28	     133.51837	     5417.7132
        615.00	     325958.35	     54.387186	     5418.0175
        616.00	     329991.74	     63.131490	     5418.4309
        617.00	     333425.26	     92.156796	     5418.9498
        618.00	     337643.00	     68.237064	     5419.2541
        619.00	     341319.64	     52.115191	     5419.5588
        620.00	     345534.22	     102.21730	     5419.9718
        621.00	     349415.31	     84.755692	     5420.4906
        622.00	     353273.73	     57.191764	     5420.7952
        623.00	     357353.17	     60.893464	     5421.0996
        624.00	     361447.35	     84.920274	     5421.5127
        625.00	     365092.53	     95.136058	     5421.8171
        626.00	     369499.28	     73.881527	     5422.3393
        627.00	     373823.96	     84.494853	     5422.6437
        628.00	     377334.49	     141.52628	     5422.9485
        629.00	     382143.02	     91.401431	     5423.4702
        630.00	     386258.37	     113.59691	     5423.7745
        631.00	     390465.08	     69.274171	     5424.1878
        632.00	     394809.77	     141.50753	     5424.7005
        633.00	     399562.14	     142.51543	     5425.2131
        634.00	     403691.58	     125.38818	     5425.5177
        635.00	     407138.65	     141.95877	     5425.8219
        636.00	     411553.06	     121.73976	     5426.2353
        637.00	     416534.82	     148.68182	     5426.7542
        638.00	     420644.51	     159.29242	     5427.0587
        639.00	     424797.73	     117.86468	     5427.4718
        640.00	     429058.01	     231.27754	     5427.9844
        641.00	     433545.26	     223.19857	     5428.2888
        642.00	     437128.46	     79.220736	     5428.7021
        643.00	     441265.62	     251.94655	     5429.2147
        644.00	     445070.85	     57.367971	     5429.5196
        645.00	     449756.32	     258.75546	     5430.0379
        646.00	     454095.82	     320.45546	     5430.3426
        647.00	     457603.06	     113.81697	     5430.7558
        648.00	     461614.88	     288.64379	     5431.2683
        649.00	     465254.79	     326.17575	     5431.5727
        650.00	     468403.11	     127.30928	     5431.9859
        651.00	     473475.42	     405.33374	     5432.4990
        652.00	     477404.81	     484.97238	     5432.8033
        653.00	     480393.19	     158.80377	     5433.1080
        654.00	     484351.90	     533.15704	     5433.6297
        655.00	     486921.39	     493.79176	     5433.9340
        656.00	     488921.04	     200.04761	     5434.3474
        657.00	     493362.52	     646.18737	     5434.8599
        658.00	     494156.97	     191.52972	     5435.1649
        659.00	     497986.82	     700.01325	     5435.6800
        660.00	     499582.39	     734.02213	     5435.9844
        661.00	     499138.47	     216.39804	     5436.3978
        662.00	     502408.90	     859.30140	     5436.9103
        663.00	     501546.54	     155.74193	     5437.2152
        664.00	     504993.76	     922.68348	     5437.7307
        665.00	     504587.86	     1078.7018	     5438.0349
        666.00	     503425.20	     254.38530	     5438.4482
        667.00	     505733.52	     1291.5207	     5438.9642
        668.00	     505007.49	     1069.6974	     5439.2684
        669.00	     500990.99	     270.36402	     5439.6818
        670.00	     503980.88	     1419.3118	     5440.1942
        671.00	     498053.95	     267.87010	     5440.4991
        672.00	     500141.39	     1430.7266	     5441.0147
        673.00	     498094.37	     1436.6791	     5441.3191
        674.00	     492185.35	     363.66988	     5441.7323
        675.00	     493979.27	     1684.0399	     5442.2447
        676.00	     490525.25	     1693.8381	     5442.5494
        677.00	     483418.34	     382.70554	     5442.9626
        678.00	     484282.34	     1583.7211	     5443.4753
        679.00	     476291.57	     270.83319	     5443.7799
        680.00	     476426.91	     1709.3909	     5444.2952
        681.00	     468882.43	     353.77396	     5444.5999
        682.00	     468874.90	     1660.5492	     5445.1155
        683.00	     464533.23	     1767.2890	     5445.4201
        684.00	     455178.30	     276.80416	     5445.7248
        685.00	     454608.02	     1816.9385	     5446.2466
        686.00	     449668.97	     1849.0446	     5446.5511
        687.00	     439879.64	     255.54867	     5446.9642
        688.00	     439757.61	     2032.1731	     5447.4767
        689.00	     434062.89	     1995.3247	     5447.7815
        690.00	     424307.98	     396.94930	     5448.1950
        691.00	     422748.00	     1944.7542	     5448.7072
        692.00	     412393.91	     463.06961	     5449.0119
        693.00	     411460.36	     1893.3484	     5449.5273
        694.00	     406620.97	     1956.9395	     5449.8321
        695.00	     395347.98	     511.60090	     5450.2455
        696.00	     394762.33	     1875.4293	     5450.7579
        697.00	     387012.14	     1820.9156	     5451.0622
        698.00	     380770.64	     1862.6070	     5451.3666
        699.00	     370976.79	     264.38818	     5451.7799
        700.00	     368888.55	     1901.2512	     5452.2985
        701.00	     361389.61	     1829.7603	     5452.6034
        702.00	     354567.85	     2006.5433	     5452.9076
        703.00	     343161.00	     398.91521	     5453.3207
        704.00	     338035.97	     295.92168	     5453.8399
        705.00	     335544.64	     1932.9071	     5454.3522
        706.00	     327177.83	     1689.7242	     5454.6567
        707.00	     317312.95	     321.05981	     5454.9612
        708.00	     315174.51	     1875.2154	     5455.4831
        709.00	     309099.15	     1742.3606	     5455.7880
        710.00	     302245.09	     1586.1630	     5456.0921
        711.00	     290356.03	     256.99429	     5456.5053
        712.00	     288418.25	     1782.1412	     5457.0243
        713.00	     277594.63	     373.29401	     5457.3291
        714.00	     276098.55	     1731.0045	     5457.8476
        715.00	     265023.07	     319.47545	     5458.1523
        716.00	     262956.73	     1675.1925	     5458.6678
        717.00	     257628.86	     1660.7254	     5458.9726
        718.00	     246539.55	     329.14708	     5459.2767
        719.00	     245277.37	     1665.6133	     5459.8018
        720.00	     235652.15	     452.24044	     5460.1066
        721.00	     232550.65	     1531.0778	     5460.6249
        722.00	     227051.15	     1549.2381	     5460.9294
        723.00	     218057.51	     335.80136	     5461.3428
        724.00	     215767.87	     1560.5895	     5461.8554
        725.00	     211417.29	     1124.2169	     5462.1598
        726.00	     201227.56	     424.43628	     5462.5729
        727.00	     196394.76	     351.04888	     5463.0861
        728.00	     195348.61	     1398.5784	     5463.5981
        729.00	     188958.39	     1232.3560	     5463.9028
        730.00	     184177.21	     1258.4867	     5464.2075
        731.00	     176721.68	     507.65524	     5464.6205
        732.00	     175179.39	     1145.6474	     5465.1392
        733.00	     170463.18	     930.80599	     5465.4438
        734.00	     165612.72	     1058.5672	     5465.7485
        735.00	     159201.78	     425.21830	     5466.1615
        736.00	     157888.66	     1126.2903	     5466.6805
        737.00	     151030.86	     461.14068	     5466.9852
        738.00	     147032.58	     272.59250	     5467.5008
        739.00	     145211.29	     1157.0609	     5468.0132
        740.00	     142586.39	     1039.3921	     5468.3176
        741.00	     135576.25	     315.00329	     5468.7309
        742.00	     134762.69	     1215.7656	     5469.2434
        743.00	     131738.54	     883.33671	     5469.5480
        744.00	     126520.20	     149.44715	     5469.9612
        745.00	     124877.61	     691.43711	     5470.4738
        746.00	     121042.60	     930.92698	     5470.7784
        747.00	     116525.59	     289.83188	     5471.1915
        748.00	     114854.69	     681.86653	     5471.7040
        749.00	     111683.73	     888.16610	     5472.0085
        750.00	     108058.23	     297.34608	     5472.4218
        751.00	     106382.41	     936.84549	     5472.9343
        752.00	     102204.77	     358.93460	     5473.2393
        753.00	     100875.78	     819.96735	     5473.7548
        754.00	     98803.146	     531.04113	     5474.0590
        755.00	     95417.800	     334.68910	     5474.4723
        756.00	     94662.781	     735.56503	     5474.9879
        757.00	     92652.614	     703.60266	     5475.2925
        758.00	     89041.365	     349.39726	     5475.7057
        759.00	     88231.841	     799.90380	     5476.2184
        760.00	     85820.335	     584.12696	     5476.5229
        761.00	     82398.793	     207.56886	     5476.9359
        762.00	     82203.410	     631.20409	     5477.4488
        763.00	     78854.222	     274.49516	     5477.7533
        764.00	     76796.089	     281.07677	     5478.1664
        765.00	     75558.168	     318.39482	     5478.6789
        766.00	     73890.743	     649.14239	     5478.9835
        767.00	     71195.662	     376.27021	     5479.3967
        768.00	     69754.932	     429.00351	     5479.9096
        769.00	     66999.226	     281.99393	     5480.2142
        770.00	     66670.179	     478.05095	     5480.7298
        771.00	     64793.272	     525.48063	     5481.0340
        772.00	     61899.230	     313.65231	     5481.4473
        773.00	     61817.305	     461.41160	     5481.9601
        774.00	     60409.971	     362.12992	     5482.2646
        775.00	     57601.248	     260.19867	     5482.6776
        776.00	     57586.597	     299.93831	     5483.1900
        777.00	     55639.579	     395.63107	     5483.4945
        778.00	     53379.508	     255.28558	     5483.9077
        779.00	     53241.656	     520.69222	     5484.4206
        780.00	     51211.867	     179.53751	     5484.7254
        781.00	     50316.462	     317.75251	     5485.2405
        782.00	     48967.793	     336.77074	     5485.5452
        783.00	     47426.218	     314.75999	     5485.8498
        784.00	     46841.493	     405.26127	     5486.3715
        785.00	     45874.462	     278.51929	     5486.6764
        786.00	     44778.897	     286.03036	     5486.9807
        787.00	     43121.892	     327.06342	     5487.3941
        788.00	     42665.133	     382.92954	     5487.9125
        789.00	     41401.185	     253.97418	     5488.2171
        790.00	     39865.922	     211.61590	     5488.6303
        791.00	     39788.189	     415.95082	     5489.1460
        792.00	     39390.333	     278.83133	     5489.4503
        793.00	     37954.790	     196.71648	     5489.8637
        794.00	     37527.200	     291.39054	     5490.3764
        795.00	     36901.528	     225.59477	     5490.6807
        796.00	     34839.718	     184.04033	     5490.9853
        797.00	     33478.596	     249.02118	     5491.3986
        798.00	     31790.938	     310.26422	     5491.9172
        799.00	     30440.490	     300.53321	     5492.2217
        800.00	     28998.257	     190.68477	     5492.6351
