Title=200220_em_NaOH-EtOH_2,0uM_ST512
Comment=
Signature=ISS_Experiment_Ver_1_0
Timestamp=Thu Feb 20 20:26:49 2020
Product=Vinci2
SoftwareVersion=BETA.2.4
BuildNumber=234
RealTimeStart=11740.3801583

AcquisitionType=Photon Counting
AcquisitionFormat=L
AcquisitionSide=Right
Detector Gains=(0.0, 0.0)

Measurable=Intensity
MaxIterations=10

RightEmissionWavelengthBandwidth=8.0
ExcitationWavelengthBandwidth=8.0
Visualization=Y:Intensity,X:EmissionWavelength,PlotType:2D


EmissionWavelength=type:numeric,unit:nm,from:400.0,to:800.0,step:1.0
ExcitationWavelength=type:numeric,unit:nm,fixed:516.0

Space=EmissionWavelength
Columns=EmissionWavelength,Intensity,IntensityStdError,RealTime
[Data]
        400.00	     71.949361	     1.9760356	     11743.457
        401.00	     77.121678	     2.5220164	     11744.028
        402.00	     72.488393	     2.3439287	     11744.333
        403.00	     70.414042	     2.2730151	     11744.746
        404.00	     75.100979	     2.1878364	     11745.262
        405.00	     71.936542	     1.0984099	     11745.567
        406.00	     68.779848	     2.0624344	     11745.979
        407.00	     69.943469	     1.4060510	     11746.492
        408.00	     66.453680	     2.2675847	     11746.797
        409.00	     72.189172	     1.7289032	     11747.210
        410.00	     67.658905	     2.8300719	     11747.723
        411.00	     70.842224	     1.8286507	     11748.027
        412.00	     66.121256	     1.3004036	     11748.332
        413.00	     64.101642	     2.2695416	     11748.745
        414.00	     66.739494	     1.9612458	     11749.264
        415.00	     61.736497	     1.1883887	     11749.568
        416.00	     65.102534	     2.3868834	     11749.872
        417.00	     64.472378	     1.7807075	     11750.286
        418.00	     66.404344	     1.6312853	     11750.805
        419.00	     60.095616	     1.6685314	     11751.109
        420.00	     65.821625	     1.8069240	     11751.522
        421.00	     63.285831	     1.7934620	     11752.038
        422.00	     62.954067	     2.0637436	     11752.343
        423.00	     60.683310	     1.2468223	     11752.756
        424.00	     65.200362	     2.6926851	     11753.268
        425.00	     59.929358	     2.4286309	     11753.573
        426.00	     63.728455	     1.5293364	     11753.986
        427.00	     61.535510	     1.0107393	     11754.499
        428.00	     63.630285	     2.1272764	     11754.803
        429.00	     61.550260	     1.6026776	     11755.108
        430.00	     62.521123	     1.0370548	     11755.521
        431.00	     62.402838	     2.6749960	     11756.040
        432.00	     59.534843	     1.3201503	     11756.344
        433.00	     63.381071	     1.6579503	     11756.648
        434.00	     63.092892	     1.4792577	     11757.062
        435.00	     60.700064	     1.4653756	     11757.581
        436.00	     62.611674	     2.0476224	     11757.885
        437.00	     62.478106	     1.9395002	     11758.190
        438.00	     60.742299	     2.1344027	     11758.712
        439.00	     63.838250	     1.8146896	     11759.016
        440.00	     64.591292	     1.9236592	     11759.321
        441.00	     65.704331	     2.2468991	     11759.734
        442.00	     65.988808	     1.9393374	     11760.038
        443.00	     67.428372	     1.6343472	     11760.560
        444.00	     68.644493	     2.1850179	     11760.865
        445.00	     69.933324	     1.5343654	     11761.278
        446.00	     65.547664	     2.3865351	     11761.790
        447.00	     68.075152	    0.79407626	     11762.095
        448.00	     68.373816	     2.3185970	     11762.508
        449.00	     69.485538	     2.3921401	     11763.021
        450.00	     70.827154	     1.1880295	     11763.325
        451.00	     71.123008	     2.5437414	     11763.738
        452.00	     68.364492	     1.6983222	     11764.251
        453.00	     72.911236	     2.5624695	     11764.764
        454.00	     74.503109	     1.8132108	     11765.068
        455.00	     75.620795	     2.8552546	     11765.481
        456.00	     77.242522	     2.6090257	     11765.994
        457.00	     81.403041	     2.2680252	     11766.299
        458.00	     87.398454	     2.8617103	     11766.712
        459.00	     88.992715	     1.6517859	     11767.224
        460.00	     92.568505	     2.5020040	     11767.529
        461.00	     103.35740	     1.9217928	     11767.942
        462.00	     105.59978	     3.2152294	     11768.455
        463.00	     112.44043	     2.1309017	     11768.759
        464.00	     128.39727	     3.5619061	     11769.064
        465.00	     135.89605	     2.1297937	     11769.477
        466.00	     146.50685	     3.0340288	     11769.996
        467.00	     154.15111	     2.3290991	     11770.300
        468.00	     174.88229	     3.6508524	     11770.819
        469.00	     185.72249	     2.3143218	     11771.124
        470.00	     211.05036	     4.1168528	     11771.537
        471.00	     219.29585	     6.2398643	     11772.049
        472.00	     241.15365	     4.2399082	     11772.354
        473.00	     270.36653	     4.4108049	     11772.767
        474.00	     284.47400	     2.6378884	     11773.280
        475.00	     311.18674	     6.0755832	     11773.584
        476.00	     332.30307	     5.6247911	     11773.888
        477.00	     360.81270	     5.8777624	     11774.302
        478.00	     377.20548	     5.4936256	     11774.821
        479.00	     407.67059	     4.8220791	     11775.125
        480.00	     424.56268	     6.4310842	     11775.641
        481.00	     448.52120	     4.7498107	     11775.945
        482.00	     475.71643	     5.5125274	     11776.359
        483.00	     497.31826	     8.1392882	     11776.871
        484.00	     511.86931	     5.7133666	     11777.176
        485.00	     552.90814	     5.5188187	     11777.589
        486.00	     556.35102	     6.4833720	     11778.101
        487.00	     578.57536	     6.2191615	     11778.406
        488.00	     578.61090	     5.9353262	     11778.710
        489.00	     605.47072	     3.3958969	     11779.124
        490.00	     609.26244	     4.7142217	     11779.643
        491.00	     622.34643	     8.4778468	     11779.947
        492.00	     627.39651	     5.6366103	     11780.360
        493.00	     638.66617	     5.4349091	     11780.873
        494.00	     644.08126	     5.7028798	     11781.178
        495.00	     673.75185	     9.5837842	     11781.693
        496.00	     755.55429	     12.223079	     11781.997
        497.00	     991.35821	     9.0156543	     11782.411
        498.00	     1337.5064	     81.621178	     11782.923
        499.00	     2762.9944	     10.884765	     11783.228
        500.00	     4135.5455	     334.79458	     11783.743
        501.00	     7240.0652	     503.61274	     11784.048
        502.00	     12950.108	     42.181921	     11784.461
        503.00	     16773.762	     861.39312	     11784.974
        504.00	     25604.783	     45.258637	     11785.278
        505.00	     30889.247	     1178.1448	     11785.794
        506.00	     39578.864	     1243.7120	     11786.099
        507.00	     51419.338	     78.333809	     11786.512
        508.00	     57016.685	     1300.2808	     11787.024
        509.00	     68400.675	     101.65250	     11787.329
        510.00	     76335.174	     66.712514	     11787.845
        511.00	     80889.816	     1109.5932	     11788.357
        512.00	     90091.488	     81.029170	     11788.662
        513.00	     93342.808	     934.11981	     11789.181
        514.00	     100644.44	     69.768193	     11789.485
        515.00	     102786.21	     710.02912	     11790.001
        516.00	     106205.23	     504.16964	     11790.305
        517.00	     108960.50	     74.641018	     11790.718
        518.00	     108950.18	     228.02135	     11791.231
        519.00	     108460.13	     94.172088	     11791.536
        520.00	     106921.97	     96.214292	     11792.051
        521.00	     104894.59	     400.15134	     11792.567
        522.00	     101401.30	     579.28977	     11792.871
        523.00	     95432.939	     87.559185	     11793.285
        524.00	     92279.047	     887.70631	     11793.797
        525.00	     86224.144	     899.95716	     11794.102
        526.00	     77858.249	     81.363519	     11794.515
        527.00	     73479.322	     1062.8743	     11795.028
        528.00	     66255.633	     1160.4530	     11795.332
        529.00	     55634.019	     55.934928	     11795.745
        530.00	     50655.864	     1272.0604	     11796.261
        531.00	     41999.348	     1333.8798	     11796.565
        532.00	     30646.222	     51.695505	     11796.979
        533.00	     23325.816	     52.136989	     11797.492
        534.00	     19298.185	     1068.6350	     11798.004
        535.00	     13239.838	     837.06381	     11798.308
        536.00	     6949.9860	     30.946506	     11798.722
        537.00	     5044.7911	     496.56686	     11799.234
        538.00	     1976.9159	     9.8713479	     11799.539
        539.00	     1429.8978	     135.26308	     11800.054
        540.00	     918.41067	     43.404710	     11800.359
        541.00	     796.14588	     11.498512	     11800.772
        542.00	     774.70671	     5.1401782	     11801.077
        543.00	     790.63814	     6.3217938	     11801.592
        544.00	     805.56165	     8.9423926	     11801.897
        545.00	     850.31584	     6.3298377	     11802.310
        546.00	     863.04806	     7.6353673	     11802.823
        547.00	     899.40401	     6.7802776	     11803.127
        548.00	     937.07866	     11.577970	     11803.432
        549.00	     981.17471	     9.3182480	     11803.845
        550.00	     1001.2738	     13.564480	     11804.364
        551.00	     1032.5322	     10.155855	     11804.668
        552.00	     1098.3675	     6.3424300	     11805.081
        553.00	     1120.2070	     8.7029659	     11805.594
        554.00	     1160.8999	     13.312129	     11805.899
        555.00	     1225.8217	     7.8179868	     11806.312
        556.00	     1230.5172	     8.2954608	     11806.824
        557.00	     1304.2342	     13.608962	     11807.129
        558.00	     1299.8024	     12.370593	     11807.645
        559.00	     1331.3149	     10.124737	     11807.949
        560.00	     1373.8428	     11.608791	     11808.362
        561.00	     1394.4440	     12.251485	     11808.878
        562.00	     1393.9692	     13.556257	     11809.183
        563.00	     1426.3686	     4.7937209	     11809.698
        564.00	     1411.8362	     12.734194	     11810.003
        565.00	     1417.5931	     12.992994	     11810.416
        566.00	     1421.2302	     13.167447	     11810.928
        567.00	     1394.7048	     10.935083	     11811.233
        568.00	     1397.0504	     6.1554883	     11811.646
        569.00	     1395.3335	     12.669684	     11812.159
        570.00	     1393.6730	     11.816298	     11812.463
        571.00	     1354.1731	     9.5720398	     11812.877
        572.00	     1344.1426	     10.431619	     11813.389
        573.00	     1314.3427	     12.690676	     11813.902
        574.00	     1301.4668	     16.731979	     11814.414
        575.00	     1273.7611	     12.938244	     11814.719
        576.00	     1217.1562	     13.265483	     11815.132
        577.00	     1228.5210	     15.096441	     11815.645
        578.00	     1177.4328	     7.0435594	     11815.949
        579.00	     1162.5058	     9.1626381	     11816.468
        580.00	     1129.0387	     12.059465	     11816.772
        581.00	     1092.7472	     9.8145921	     11817.186
        582.00	     1071.1568	     12.386668	     11817.698
        583.00	     1044.6320	     11.708593	     11818.003
        584.00	     1037.8014	     13.878864	     11818.518
        585.00	     987.83051	     10.755274	     11818.823
        586.00	     944.84526	     7.7696526	     11819.236
        587.00	     948.68267	     13.874454	     11819.752
        588.00	     922.74849	     12.138372	     11820.057
        589.00	     892.41441	     8.0153536	     11820.470
        590.00	     882.46632	     8.9728508	     11820.982
        591.00	     839.47450	     13.824930	     11821.287
        592.00	     825.89692	     11.301422	     11821.591
        593.00	     785.18542	     14.475862	     11822.005
        594.00	     779.92185	     11.875281	     11822.523
        595.00	     763.76440	     7.3091733	     11822.828
        596.00	     744.58881	     8.5446099	     11823.347
        597.00	     756.02618	     6.9997792	     11823.651
        598.00	     713.93492	     14.080282	     11824.064
        599.00	     707.30728	     10.764936	     11824.580
        600.00	     695.88077	     9.0849405	     11824.885
        601.00	     702.82822	     6.2355623	     11825.298
        602.00	     673.99765	     14.137036	     11825.810
        603.00	     669.31250	     10.955052	     11826.115
        604.00	     672.59006	     6.6726838	     11826.528
        605.00	     663.59426	     10.605422	     11827.041
        606.00	     654.72088	     8.1709288	     11827.345
        607.00	     625.31867	     10.785607	     11827.650
        608.00	     624.93503	     7.7963233	     11828.063
        609.00	     643.82250	     12.177907	     11828.582
        610.00	     624.59433	     8.1927752	     11828.886
        611.00	     591.66539	     7.5379034	     11829.191
        612.00	     609.35271	     9.1639548	     11829.713
        613.00	     584.18740	     9.6333363	     11830.017
        614.00	     587.46586	     6.8453239	     11830.533
        615.00	     566.29818	     8.8680442	     11830.837
        616.00	     570.32265	     9.1136180	     11831.353
        617.00	     575.96942	     8.5922371	     11831.658
        618.00	     536.86004	     5.9025493	     11832.071
        619.00	     549.41684	     8.8451199	     11832.583
        620.00	     525.68068	     10.722185	     11832.888
        621.00	     520.04521	     8.5986277	     11833.403
        622.00	     514.00557	     11.368096	     11833.708
        623.00	     499.09100	     7.7679441	     11834.121
        624.00	     510.98049	     10.855128	     11834.634
        625.00	     474.25398	     6.7151599	     11834.939
        626.00	     468.26515	     10.035305	     11835.454
        627.00	     489.29093	     11.620440	     11835.967
        628.00	     460.50014	     15.060569	     11836.271
        629.00	     445.70884	     6.4188086	     11836.575
        630.00	     440.91422	     6.6944675	     11836.989
        631.00	     426.44748	     10.398150	     11837.511
        632.00	     421.45808	     11.910889	     11837.815
        633.00	     415.14499	     9.7719968	     11838.229
        634.00	     417.37620	     12.279766	     11838.741
        635.00	     407.76445	     12.587847	     11839.046
        636.00	     397.62129	     14.545804	     11839.350
        637.00	     374.56905	     9.8928244	     11839.763
        638.00	     398.15027	     8.3693169	     11840.282
        639.00	     376.99154	     8.2464090	     11840.586
        640.00	     389.03310	     9.2615306	     11840.891
        641.00	     391.77241	     11.826382	     11841.413
        642.00	     352.98957	     5.4766323	     11841.718
        643.00	     356.58288	     12.849112	     11842.233
        644.00	     365.00709	     11.966272	     11842.538
        645.00	     353.28702	     14.551982	     11842.842
        646.00	     347.60201	     10.050049	     11843.255
        647.00	     368.98238	     13.065815	     11843.774
        648.00	     352.97807	     5.2847200	     11844.079
        649.00	     329.42103	     5.2252895	     11844.383
        650.00	     354.17859	     9.2463832	     11844.796
        651.00	     328.57067	     10.384296	     11845.315
        652.00	     306.65783	     8.7923708	     11845.831
        653.00	     325.72004	     14.853469	     11846.136
        654.00	     304.10029	     13.363853	     11846.651
        655.00	     307.92736	     9.9281284	     11846.956
        656.00	     324.98215	     7.4334573	     11847.369
        657.00	     321.77245	     10.975773	     11847.881
        658.00	     302.24669	     7.1959002	     11848.186
        659.00	     311.63822	     12.694566	     11848.702
        660.00	     315.91217	     10.110095	     11849.006
        661.00	     284.84180	     15.182058	     11849.311
        662.00	     286.52437	     9.8732682	     11849.833
        663.00	     306.19226	     7.9949149	     11850.137
        664.00	     292.39978	     16.680679	     11850.550
        665.00	     314.70353	     7.7914659	     11851.066
        666.00	     281.31708	     7.2492571	     11851.371
        667.00	     296.45803	     10.133327	     11851.784
        668.00	     318.25028	     17.460665	     11852.296
        669.00	     273.94594	     10.099789	     11852.601
        670.00	     285.67116	     11.287295	     11852.905
        671.00	     263.02585	     12.016839	     11853.319
        672.00	     266.96046	     20.705581	     11853.837
        673.00	     283.98131	     11.816693	     11854.142
        674.00	     273.50621	     11.615939	     11854.555
        675.00	     273.44067	     12.123581	     11855.068
        676.00	     284.67832	     19.821164	     11855.580
        677.00	     272.13040	     15.197633	     11856.096
        678.00	     228.52736	     6.2174257	     11856.400
        679.00	     263.61959	     10.830474	     11856.814
        680.00	     276.01063	     12.958828	     11857.326
        681.00	     257.17238	     21.381936	     11857.631
        682.00	     272.89488	     12.150760	     11858.044
        683.00	     234.13645	     13.670387	     11858.557
        684.00	     250.53305	     5.3067596	     11859.069
        685.00	     258.52875	     10.223807	     11859.374
        686.00	     255.14607	     13.765494	     11859.678
        687.00	     253.94791	     16.243928	     11860.091
        688.00	     254.05665	     18.392319	     11860.610
        689.00	     238.32344	     17.179175	     11860.915
        690.00	     253.43124	     14.053843	     11861.219
        691.00	     254.27295	     10.848419	     11861.632
        692.00	     250.52004	     15.814474	     11862.151
        693.00	     260.86233	     21.797963	     11862.456
        694.00	     260.82236	     23.572148	     11862.760
        695.00	     225.77162	     13.629544	     11863.173
        696.00	     246.22426	     14.517537	     11863.692
        697.00	     260.12420	     15.144968	     11863.997
        698.00	     223.22811	     11.386142	     11864.301
        699.00	     259.97354	     17.943244	     11864.714
        700.00	     229.14817	     14.192727	     11865.019
        701.00	     243.60063	     16.905657	     11865.544
        702.00	     212.33331	     20.982926	     11865.848
        703.00	     219.18795	     21.488788	     11866.262
        704.00	     207.70787	     19.565631	     11866.774
        705.00	     239.41220	     19.782830	     11867.079
        706.00	     219.11366	     15.229607	     11867.383
        707.00	     218.67868	     19.693058	     11867.796
        708.00	     226.12681	     23.570135	     11868.315
        709.00	     243.29405	     16.601333	     11868.620
        710.00	     258.23232	     20.288755	     11868.924
        711.00	     205.21490	     17.654169	     11869.337
        712.00	     224.07607	     19.866315	     11869.856
        713.00	     277.28715	     11.966385	     11870.161
        714.00	     197.16020	     12.187196	     11870.679
        715.00	     222.43570	     24.345116	     11870.984
        716.00	     228.90644	     23.987184	     11871.503
        717.00	     221.86546	     30.772650	     11871.808
        718.00	     236.30981	     26.502811	     11872.326
        719.00	     191.78912	     17.128785	     11872.631
        720.00	     215.73232	     23.964881	     11873.150
        721.00	     207.86754	     26.216368	     11873.662
        722.00	     177.31287	     15.930569	     11873.967
        723.00	     191.83975	     13.256325	     11874.380
        724.00	     186.31423	     15.283915	     11874.892
        725.00	     238.59288	     19.367527	     11875.197
        726.00	     248.92627	     29.202219	     11875.501
        727.00	     218.35002	     37.174111	     11875.915
        728.00	     199.67653	     22.593551	     11876.434
        729.00	     172.22220	     24.913378	     11876.738
        730.00	     239.48989	     29.132443	     11877.043
        731.00	     237.01973	     26.626934	     11877.456
        732.00	     232.85156	     24.363836	     11877.975
        733.00	     204.70149	     26.970979	     11878.487
        734.00	     201.62123	     24.635039	     11878.791
        735.00	     194.05952	     28.375922	     11879.205
        736.00	     165.92680	     29.654415	     11879.721
        737.00	     214.18418	     23.802981	     11880.230
        738.00	     194.03277	     34.129369	     11880.535
        739.00	     237.56783	     23.051143	     11880.948
        740.00	     170.99049	     20.473046	     11881.461
        741.00	     211.23187	     31.413730	     11881.765
        742.00	     144.60870	     29.320614	     11882.178
        743.00	     201.59585	     38.465968	     11882.691
        744.00	     155.65787	     19.163327	     11882.995
        745.00	     169.39779	     26.184971	     11883.300
        746.00	     207.40727	     32.651201	     11883.713
        747.00	     159.39387	     34.623068	     11884.232
        748.00	     190.50363	     31.544225	     11884.537
        749.00	     160.72865	     26.037021	     11885.055
        750.00	     192.50782	     32.363794	     11885.360
        751.00	     126.69440	     38.450471	     11885.773
        752.00	     161.60151	     21.629676	     11886.285
        753.00	     173.86666	     39.295197	     11886.590
        754.00	     194.50367	     21.492173	     11887.106
        755.00	     191.36676	     39.521335	     11887.410
        756.00	     177.95070	     40.480135	     11887.823
        757.00	     182.59992	     25.873498	     11888.336
        758.00	     155.15319	     33.699039	     11888.640
        759.00	     159.81802	     30.264982	     11889.053
        760.00	     235.51352	     40.737486	     11889.566
        761.00	     189.93830	     42.351822	     11889.871
        762.00	     200.49047	     36.135195	     11890.386
        763.00	     264.25560	     34.235159	     11890.691
        764.00	     187.50436	     27.335040	     11891.104
        765.00	     219.63711	     50.247918	     11891.617
        766.00	     170.74520	     36.808009	     11891.921
        767.00	     169.69794	     29.770591	     11892.440
        768.00	     143.64638	     53.261778	     11892.745
        769.00	     170.27206	     44.242733	     11893.260
        770.00	     255.11710	     42.532604	     11893.565
        771.00	     199.90980	     42.327624	     11893.978
        772.00	     175.81875	     23.316917	     11894.491
        773.00	     223.87346	     43.341951	     11894.795
        774.00	     229.51663	     36.332785	     11895.208
        775.00	     212.10985	     32.113386	     11895.724
        776.00	     254.82894	     45.238879	     11896.029
        777.00	     154.82270	     38.278781	     11896.544
        778.00	     194.21034	     39.919610	     11896.849
        779.00	     186.06670	     36.570703	     11897.262
        780.00	     237.42566	     41.738030	     11897.774
        781.00	     239.99675	     52.108982	     11898.079
        782.00	     162.95199	     33.215948	     11898.492
        783.00	     219.64015	     37.857843	     11899.005
        784.00	     243.97763	     46.956516	     11899.309
        785.00	     298.12750	     61.818557	     11899.723
        786.00	     218.21782	     69.237985	     11900.235
        787.00	     288.49393	     50.179507	     11900.540
        788.00	     275.83074	     42.637038	     11900.953
        789.00	     224.21083	     26.597511	     11901.465
        790.00	     226.03428	     67.131363	     11901.770
        791.00	     216.47460	     45.358623	     11902.183
        792.00	     281.56289	     39.895316	     11902.696
        793.00	     291.90471	     63.526775	     11903.000
        794.00	     216.80000	     43.512450	     11903.413
        795.00	     171.56482	     61.865647	     11903.926
        796.00	     274.74760	     48.621311	     11904.439
        797.00	     164.80268	     45.209823	     11904.744
        798.00	     155.26081	     39.186909	     11905.262
        799.00	     179.90918	     37.186923	     11905.775
        800.00	     191.25624	     42.815696	     11906.079
