Title=200220_em_0,1MNaOH_2,0uM_ST512
Comment=
Signature=ISS_Experiment_Ver_1_0
Timestamp=Thu Feb 20 17:54:44 2020
Product=Vinci2
SoftwareVersion=BETA.2.4
BuildNumber=234
RealTimeStart=8905.46915198

AcquisitionType=Photon Counting
AcquisitionFormat=L
AcquisitionSide=Right
Detector Gains=(0.0, 0.0)

Measurable=Intensity
MaxIterations=10

RightEmissionWavelengthBandwidth=8.0
ExcitationWavelengthBandwidth=8.0
Visualization=Y:Intensity,X:EmissionWavelength,PlotType:2D


EmissionWavelength=type:numeric,unit:nm,from:400.0,to:800.0,step:1.0
ExcitationWavelength=type:numeric,unit:nm,fixed:497.0

Space=EmissionWavelength
Columns=EmissionWavelength,Intensity,IntensityStdError,RealTime
[Data]
        400.00	     253.44802	     2.9602533	     8908.5434
        401.00	     256.66628	     3.3654260	     8909.1211
        402.00	     260.94446	     3.5006430	     8909.4256
        403.00	     262.80139	     2.7417201	     8909.8389
        404.00	     265.60325	     3.3220049	     8910.3515
        405.00	     272.13256	     3.3870184	     8910.6561
        406.00	     279.09707	     3.7211929	     8911.0693
        407.00	     278.52529	     4.7015595	     8911.5819
        408.00	     290.07451	     4.7069746	     8911.8864
        409.00	     296.46049	     3.3309249	     8912.2995
        410.00	     305.86991	     4.8452035	     8912.8121
        411.00	     305.46460	     4.1218256	     8913.1164
        412.00	     309.72230	     3.4688641	     8913.5298
        413.00	     319.12456	     5.2357798	     8914.0425
        414.00	     323.91688	     2.1381591	     8914.3473
        415.00	     336.95944	     5.1828362	     8914.8625
        416.00	     337.32260	     4.0910109	     8915.1673
        417.00	     337.59750	     2.5954928	     8915.6860
        418.00	     343.29061	     3.3665787	     8915.9909
        419.00	     347.62264	     4.7640952	     8916.5062
        420.00	     349.68311	     4.6543735	     8916.8104
        421.00	     366.69500	     3.8158479	     8917.2239
        422.00	     360.53629	     2.7065417	     8917.7365
        423.00	     369.23354	     3.9593785	     8918.0413
        424.00	     366.05247	     4.8120474	     8918.5567
        425.00	     376.06771	     3.5299820	     8918.8609
        426.00	     383.94599	     2.5888369	     8919.1658
        427.00	     391.49236	     6.1407522	     8919.6876
        428.00	     387.21044	     4.2255682	     8919.9919
        429.00	     389.21900	     3.7410432	     8920.2963
        430.00	     395.24794	     3.2896876	     8920.7100
        431.00	     404.14724	     3.8361451	     8921.2288
        432.00	     407.22682	     4.0285138	     8921.5334
        433.00	     408.77948	     5.0498702	     8922.0489
        434.00	     416.28006	     5.1977975	     8922.5612
        435.00	     427.68988	     5.2368111	     8922.8659
        436.00	     424.35474	     5.8519974	     8923.2791
        437.00	     432.12026	     3.4871101	     8923.7919
        438.00	     436.80966	     4.5696743	     8924.0964
        439.00	     445.82835	     4.8605156	     8924.6118
        440.00	     452.43032	     5.1885690	     8924.9164
        441.00	     453.52073	     3.3703487	     8925.3296
        442.00	     469.19120	     4.7118704	     8925.8424
        443.00	     465.15983	     3.4607866	     8926.1472
        444.00	     484.13991	     4.7128821	     8926.6686
        445.00	     485.74707	     4.7113935	     8927.1750
        446.00	     492.57727	     4.5748129	     8927.4796
        447.00	     507.66683	     6.5185566	     8927.8928
        448.00	     525.78233	     4.4668855	     8928.4086
        449.00	     534.69260	     4.6155439	     8928.7128
        450.00	     547.22922	     5.9790188	     8929.1262
        451.00	     562.39578	     4.7711635	     8929.6389
        452.00	     577.91159	     4.7443066	     8929.9436
        453.00	     590.62977	     8.1520871	     8930.4592
        454.00	     621.60789	     7.4235039	     8930.7633
        455.00	     665.41632	     6.1285045	     8931.1767
        456.00	     689.57407	     7.5606247	     8931.6895
        457.00	     736.29654	     5.2916582	     8931.9941
        458.00	     767.87291	     11.653667	     8932.5097
        459.00	     806.89200	     5.8936376	     8932.8139
        460.00	     877.99341	     4.2459309	     8933.2273
        461.00	     923.00746	     12.471404	     8933.7431
        462.00	     1021.2731	     8.0169192	     8934.0476
        463.00	     1130.0452	     7.0411547	     8934.4607
        464.00	     1191.2640	     15.243858	     8934.9733
        465.00	     1312.3223	     18.874503	     8935.2778
        466.00	     1478.4946	     12.162400	     8935.5826
        467.00	     1589.3197	     26.230432	     8936.1042
        468.00	     1858.5650	     7.9240055	     8936.4089
        469.00	     2032.3044	     41.359097	     8936.9242
        470.00	     2307.6536	     42.435932	     8937.2288
        471.00	     2748.6433	     9.1990922	     8937.6421
        472.00	     2984.4287	     58.908290	     8938.1546
        473.00	     3644.6240	     18.181571	     8938.4597
        474.00	     4020.7147	     93.750457	     8938.9778
        475.00	     4757.5183	     111.68778	     8939.2827
        476.00	     5989.3024	     20.651301	     8939.6957
        477.00	     6690.9857	     185.64474	     8940.2084
        478.00	     8137.3288	     214.69979	     8940.5131
        479.00	     10760.493	     21.795137	     8940.9259
        480.00	     12266.298	     381.22783	     8941.4386
        481.00	     16184.661	     27.411118	     8941.7434
        482.00	     18467.542	     558.44509	     8942.2589
        483.00	     22480.739	     617.84309	     8942.5634
        484.00	     28926.756	     45.085966	     8942.9767
        485.00	     34501.517	     40.780109	     8943.4896
        486.00	     38632.339	     998.38979	     8944.0019
        487.00	     45549.066	     1048.1644	     8944.3066
        488.00	     56093.030	     39.043357	     8944.7196
        489.00	     61262.262	     1249.8362	     8945.2320
        490.00	     69750.489	     1270.0366	     8945.5365
        491.00	     78836.360	     1228.5326	     8945.8411
        492.00	     90200.114	     64.298908	     8946.2543
        493.00	     95542.525	     1236.8918	     8946.7733
        494.00	     103614.05	     1061.2755	     8947.0777
        495.00	     112813.92	     40.854542	     8947.4909
        496.00	     116543.80	     849.54771	     8948.0036
        497.00	     122543.86	     646.92098	     8948.3079
        498.00	     129937.62	     23.502524	     8948.7211
        499.00	     136281.31	     41.852518	     8949.2341
        500.00	     141984.53	     386.14285	     8949.7463
        501.00	     148484.04	     338.87888	     8950.0511
        502.00	     155150.27	     36.879728	     8950.4641
        503.00	     160412.70	     239.73560	     8950.9799
        504.00	     165834.45	     207.22907	     8951.2843
        505.00	     171192.71	     34.586700	     8951.6976
        506.00	     174857.77	     135.05423	     8952.2102
        507.00	     178555.04	     47.617407	     8952.5151
        508.00	     180931.48	     19.163709	     8953.0336
        509.00	     182148.68	     104.24888	     8953.5461
        510.00	     183407.63	     50.919509	     8953.8507
        511.00	     183917.32	     39.596589	     8954.2638
        512.00	     184132.50	     55.937778	     8954.7765
        513.00	     183601.60	     67.012125	     8955.0811
        514.00	     183009.84	     31.209326	     8955.4943
        515.00	     182231.35	     58.907443	     8956.0068
        516.00	     181829.65	     35.928069	     8956.3114
        517.00	     181043.24	     36.104761	     8956.8301
        518.00	     180387.66	     38.335360	     8957.1344
        519.00	     179942.45	     27.692056	     8957.5475
        520.00	     179173.33	     46.504870	     8958.0604
        521.00	     178801.33	     40.224574	     8958.3649
        522.00	     178615.96	     29.654095	     8958.7780
        523.00	     178669.86	     42.323975	     8959.2909
        524.00	     178519.68	     41.232864	     8959.8031
        525.00	     178245.97	     41.070028	     8960.1080
        526.00	     178383.14	     50.747137	     8960.6268
        527.00	     178402.08	     60.643579	     8960.9342
        528.00	     178999.51	     22.286977	     8961.4469
        529.00	     179155.78	     27.468787	     8961.7512
        530.00	     179539.53	     37.820155	     8962.1645
        531.00	     179654.98	     29.356951	     8962.6770
        532.00	     180230.48	     53.437369	     8962.9817
        533.00	     180724.77	     26.588631	     8963.3949
        534.00	     181290.27	     38.005397	     8963.9073
        535.00	     181837.40	     46.334929	     8964.2121
        536.00	     182479.54	     34.525278	     8964.6252
        537.00	     183107.67	     46.771180	     8965.1381
        538.00	     183922.22	     59.247720	     8965.6506
        539.00	     184435.47	     61.836088	     8965.9547
        540.00	     185150.63	     30.532202	     8966.3681
        541.00	     186063.65	     24.278542	     8966.8840
        542.00	     186760.56	     57.322354	     8967.3966
        543.00	     187436.67	     95.985830	     8967.7010
        544.00	     187986.39	     51.219171	     8968.1140
        545.00	     188506.39	     35.062153	     8968.6303
        546.00	     189510.05	     107.66458	     8969.1426
        547.00	     190004.92	     103.91756	     8969.4473
        548.00	     190776.70	     78.284567	     8969.7516
        549.00	     191794.88	     88.422665	     8970.1645
        550.00	     192042.51	     70.867354	     8970.4692
        551.00	     192791.89	     121.22569	     8970.9912
        552.00	     192974.49	     56.348888	     8971.2959
        553.00	     194077.91	     122.06880	     8971.8113
        554.00	     194497.56	     110.86123	     8972.1156
        555.00	     195132.66	     139.51808	     8972.4203
        556.00	     195436.60	     21.725531	     8972.8335
        557.00	     196503.59	     133.09923	     8973.3525
        558.00	     196793.27	     41.198519	     8973.6570
        559.00	     197903.45	     148.21601	     8974.1726
        560.00	     198193.73	     125.04911	     8974.4773
        561.00	     198420.47	     47.828233	     8974.8903
        562.00	     199281.24	     190.38271	     8975.4030
        563.00	     199186.43	     41.809097	     8975.7076
        564.00	     200127.14	     202.18628	     8976.2230
        565.00	     200489.87	     216.15736	     8976.5277
        566.00	     200461.02	     56.897372	     8976.9408
        567.00	     200301.91	     53.474936	     8977.4536
        568.00	     201075.61	     275.65579	     8977.9661
        569.00	     201244.98	     284.81938	     8978.2703
        570.00	     199863.97	     80.342338	     8978.6837
        571.00	     200285.44	     342.77185	     8979.1963
        572.00	     198668.92	     94.001618	     8979.5011
        573.00	     198779.96	     352.62760	     8980.0198
        574.00	     197562.62	     401.04969	     8980.3239
        575.00	     196785.12	     455.83234	     8980.6286
        576.00	     193818.64	     59.185674	     8981.0418
        577.00	     193160.06	     494.86554	     8981.5607
        578.00	     189887.91	     75.745671	     8981.8656
        579.00	     189064.82	     600.82304	     8982.3840
        580.00	     186951.06	     640.16421	     8982.6885
        581.00	     182710.13	     110.15067	     8983.1017
        582.00	     181341.51	     703.68145	     8983.6144
        583.00	     178016.46	     726.53590	     8983.9190
        584.00	     174528.64	     799.78249	     8984.2231
        585.00	     169777.95	     83.108644	     8984.6364
        586.00	     167956.02	     807.38677	     8985.1553
        587.00	     164312.19	     709.41982	     8985.4598
        588.00	     160178.45	     761.72952	     8985.7643
        589.00	     154760.51	     97.640674	     8986.1774
        590.00	     152914.02	     761.66224	     8986.6963
        591.00	     148822.83	     861.51684	     8987.0009
        592.00	     145115.70	     770.03580	     8987.3051
        593.00	     139073.88	     96.239293	     8987.7185
        594.00	     137317.47	     738.76538	     8988.2374
        595.00	     133227.01	     798.39331	     8988.5417
        596.00	     129667.12	     812.93599	     8988.8462
        597.00	     124451.05	     113.25832	     8989.2594
        598.00	     122533.41	     719.92793	     8989.7784
        599.00	     118900.07	     729.66710	     8990.0826
        600.00	     113591.92	     121.18471	     8990.3874
        601.00	     111909.25	     671.86552	     8990.9093
        602.00	     108588.78	     688.30155	     8991.2135
        603.00	     103976.94	     130.33950	     8991.6269
        604.00	     102371.09	     635.37341	     8992.1394
        605.00	     99351.681	     592.77793	     8992.4441
        606.00	     94960.475	     119.09698	     8992.8572
        607.00	     93465.067	     568.21833	     8993.3699
        608.00	     90923.826	     597.61860	     8993.6744
        609.00	     86815.119	     67.594434	     8994.0874
        610.00	     85755.465	     493.91556	     8994.6003
        611.00	     81903.858	     48.353001	     8994.9050
        612.00	     80786.056	     572.69042	     8995.4204
        613.00	     78384.920	     507.57643	     8995.7252
        614.00	     74861.410	     134.96200	     8996.1380
        615.00	     73924.607	     462.31946	     8996.6508
        616.00	     71841.129	     428.05676	     8996.9552
        617.00	     68435.903	     119.37736	     8997.3684
        618.00	     67776.422	     506.24366	     8997.8811
        619.00	     65823.992	     439.14385	     8998.1853
        620.00	     62684.670	     80.441717	     8998.5987
        621.00	     61883.743	     381.52104	     8999.1112
        622.00	     60000.724	     355.55475	     8999.4159
        623.00	     58070.484	     444.85272	     8999.7203
        624.00	     55556.885	     82.292137	     9000.1332
        625.00	     54958.563	     323.68901	     9000.6524
        626.00	     53541.892	     357.15353	     9000.9568
        627.00	     51917.219	     348.89320	     9001.2613
        628.00	     49419.202	     77.188366	     9001.6745
        629.00	     49061.955	     364.51899	     9002.1931
        630.00	     47332.201	     337.25941	     9002.4978
        631.00	     45998.134	     353.16290	     9002.8023
        632.00	     43616.079	     56.129103	     9003.2155
        633.00	     43173.667	     280.41806	     9003.7342
        634.00	     41678.458	     261.99285	     9004.0386
        635.00	     40188.190	     308.56872	     9004.3434
        636.00	     38400.208	     94.166722	     9004.7565
        637.00	     37563.516	     268.40606	     9005.2753
        638.00	     36434.501	     295.92684	     9005.5800
        639.00	     35224.950	     224.97318	     9005.8841
        640.00	     33391.564	     105.29625	     9006.2975
        641.00	     32857.976	     275.71971	     9006.8165
        642.00	     31786.311	     257.13056	     9007.1208
        643.00	     30553.119	     214.85866	     9007.4251
        644.00	     29038.222	     51.024815	     9007.8384
        645.00	     28541.246	     259.82931	     9008.3575
        646.00	     27519.212	     219.92281	     9008.6621
        647.00	     26690.846	     190.01129	     9008.9664
        648.00	     25111.139	     58.822928	     9009.3795
        649.00	     25000.711	     205.58111	     9009.8981
        650.00	     23942.170	     224.79602	     9010.2027
        651.00	     23372.587	     166.60552	     9010.5072
        652.00	     22040.687	     71.628616	     9010.9205
        653.00	     21734.796	     226.80503	     9011.4393
        654.00	     21046.300	     172.19269	     9011.7436
        655.00	     20155.971	     154.79779	     9012.0481
        656.00	     19347.751	     52.356895	     9012.4615
        657.00	     19097.983	     157.86374	     9012.9802
        658.00	     18280.857	     121.41899	     9013.2848
        659.00	     17869.014	     137.15752	     9013.5891
        660.00	     17065.933	     60.799194	     9014.0025
        661.00	     16694.759	     113.06604	     9014.5215
        662.00	     16075.922	     53.579597	     9014.8289
        663.00	     15856.892	     138.49152	     9015.3447
        664.00	     15279.900	     148.77209	     9015.6490
        665.00	     14579.023	     61.018713	     9016.0623
        666.00	     14389.746	     125.74962	     9016.5779
        667.00	     14056.917	     140.98043	     9016.8827
        668.00	     13404.893	     53.837813	     9017.2958
        669.00	     13239.052	     94.663773	     9017.8082
        670.00	     12682.661	     75.019397	     9018.1132
        671.00	     12429.609	     93.377891	     9018.6285
        672.00	     12131.025	     91.905155	     9018.9333
        673.00	     11673.465	     56.457531	     9019.3462
        674.00	     11590.397	     97.275698	     9019.8618
        675.00	     11262.907	     114.21463	     9020.1663
        676.00	     10822.140	     42.644004	     9020.5797
        677.00	     10654.007	     80.197079	     9021.0922
        678.00	     10200.520	     46.815512	     9021.3971
        679.00	     10198.618	     70.313287	     9021.9154
        680.00	     9909.3332	     78.940893	     9022.2202
        681.00	     9467.7803	     46.006711	     9022.6333
        682.00	     9476.7612	     71.167123	     9023.1493
        683.00	     9243.1700	     58.456090	     9023.4537
        684.00	     8852.5455	     42.463419	     9023.8666
        685.00	     8683.3776	     72.903726	     9024.3795
        686.00	     8589.3338	     55.541413	     9024.6842
        687.00	     8172.1464	     54.079704	     9025.0971
        688.00	     8187.4069	     75.517879	     9025.6096
        689.00	     7853.6833	     80.075422	     9025.9140
        690.00	     7743.2960	     53.578614	     9026.2189
        691.00	     7601.7325	     57.698093	     9026.7407
        692.00	     7326.8592	     41.641848	     9027.0455
        693.00	     7157.2750	     35.958580	     9027.5610
        694.00	     7118.5153	     70.370793	     9028.0734
        695.00	     6935.9452	     54.198351	     9028.3777
        696.00	     6739.1987	     38.454377	     9028.7911
        697.00	     6648.9217	     47.638804	     9029.3039
        698.00	     6404.7319	     36.691561	     9029.6086
        699.00	     6420.8246	     63.894319	     9030.1269
        700.00	     6180.2538	     55.676588	     9030.4315
        701.00	     6027.4036	     46.290869	     9030.8448
        702.00	     5985.2692	     72.659940	     9031.3574
        703.00	     5760.0378	     52.131168	     9031.6622
        704.00	     5570.2076	     72.516448	     9032.1775
        705.00	     5574.3270	     53.089975	     9032.4822
        706.00	     5357.6059	     36.241284	     9032.8953
        707.00	     5338.0645	     54.338865	     9033.4078
        708.00	     5099.1460	     65.923348	     9033.7126
        709.00	     5063.0568	     74.129199	     9034.2279
        710.00	     5028.3805	     86.520719	     9034.5328
        711.00	     4752.9593	     45.155478	     9034.9458
        712.00	     4845.0676	     78.416345	     9035.4586
        713.00	     4702.7432	     65.644469	     9035.7628
        714.00	     4526.0347	     43.440969	     9036.1761
        715.00	     4489.2118	     39.159546	     9036.6888
        716.00	     4344.6196	     52.714780	     9036.9933
        717.00	     4337.1420	     61.801862	     9037.2976
        718.00	     4244.3902	     46.028523	     9037.7109
        719.00	     4229.6581	     60.668545	     9038.2296
        720.00	     4142.9744	     63.519343	     9038.5341
        721.00	     4015.8946	     58.506523	     9038.8388
        722.00	     4071.7911	     48.490007	     9039.2519
        723.00	     3853.5511	     39.572461	     9039.7708
        724.00	     3892.7855	     39.636866	     9040.0751
        725.00	     3705.6015	     65.242372	     9040.3795
        726.00	     3642.3349	     66.216743	     9040.7930
        727.00	     3445.6433	     44.660848	     9041.3119
        728.00	     3489.3567	     55.649508	     9041.8246
        729.00	     3535.5985	     66.724226	     9042.3371
        730.00	     3404.0964	     58.048153	     9042.6415
        731.00	     3297.1138	     53.887203	     9043.0547
        732.00	     3324.3858	     37.434099	     9043.5673
        733.00	     3302.2000	     30.842495	     9043.8723
        734.00	     3231.1714	     65.336746	     9044.3907
        735.00	     3240.7124	     55.787758	     9044.6951
        736.00	     3065.7148	     72.346235	     9045.1083
        737.00	     3149.4714	     35.234960	     9045.6241
        738.00	     2997.2956	     42.997849	     9045.9317
        739.00	     3058.6319	     39.332874	     9046.4443
        740.00	     2881.4741	     54.293935	     9046.7519
        741.00	     2899.5568	     43.880602	     9047.2675
        742.00	     2948.0353	     43.883076	     9047.5722
        743.00	     2824.6276	     38.314765	     9047.9853
        744.00	     2830.1010	     56.343051	     9048.5008
        745.00	     2782.1593	     40.555027	     9048.8054
        746.00	     2646.8213	     44.029467	     9049.2187
        747.00	     2648.0570	     30.886585	     9049.7312
        748.00	     2593.9676	     57.281638	     9050.0361
        749.00	     2595.3239	     48.223198	     9050.5545
        750.00	     2585.3900	     49.315241	     9050.8593
        751.00	     2639.3825	     30.898572	     9051.3750
        752.00	     2615.2852	     45.453975	     9051.6796
        753.00	     2506.5778	     42.215234	     9052.1950
        754.00	     2458.2957	     76.818230	     9052.4994
        755.00	     2461.7929	     48.035274	     9052.9128
        756.00	     2480.5574	     46.593334	     9053.4253
        757.00	     2281.9556	     46.370692	     9053.7301
        758.00	     2412.3284	     58.208634	     9054.2457
        759.00	     2321.2729	     66.667324	     9054.5503
        760.00	     2331.9236	     57.711867	     9054.8547
        761.00	     2289.0148	     55.015073	     9055.2678
        762.00	     2328.8185	     43.630269	     9055.7865
        763.00	     2290.4105	     56.816665	     9056.0909
        764.00	     2378.8132	     59.542497	     9056.5041
        765.00	     2138.7614	     46.094664	     9056.8088
        766.00	     2229.4097	     45.301697	     9057.3275
        767.00	     2218.9850	     48.119435	     9057.6322
        768.00	     2157.1831	     53.863399	     9058.1477
        769.00	     2267.5714	     66.765655	     9058.4521
        770.00	     2299.2349	     55.341064	     9058.8653
        771.00	     2303.7836	     44.944729	     9059.3781
        772.00	     2052.7326	     50.763370	     9059.6829
        773.00	     2080.5132	     44.325258	     9060.1982
        774.00	     2062.3329	     72.875525	     9060.5031
        775.00	     2049.9477	     79.137286	     9060.8072
        776.00	     2103.6943	     67.054450	     9061.2205
        777.00	     2129.8397	     101.77050	     9061.7394
        778.00	     2007.0706	     51.048799	     9062.0438
        779.00	     2104.7921	     69.413490	     9062.3481
        780.00	     1974.3074	     42.397440	     9062.7614
        781.00	     2020.6869	     99.380247	     9063.2803
        782.00	     1982.1018	     64.277488	     9063.5850
        783.00	     1973.1128	     74.216217	     9063.9980
        784.00	     2037.3238	     50.711395	     9064.5107
        785.00	     1950.8393	     77.738106	     9064.8149
        786.00	     1956.4615	     34.568194	     9065.2282
        787.00	     2085.3341	     65.624167	     9065.7441
        788.00	     2077.5174	     57.531503	     9066.0484
        789.00	     1936.9967	     89.558979	     9066.4617
        790.00	     1944.9822	     63.737697	     9066.9745
        791.00	     2034.5475	     73.203971	     9067.2788
        792.00	     1972.5221	     77.492744	     9067.6921
        793.00	     2112.7201	     75.674277	     9068.2049
        794.00	     1887.2000	     42.687495	     9068.5093
        795.00	     1945.1956	     59.805998	     9068.8135
        796.00	     1928.7125	     64.495014	     9069.2269
        797.00	     1769.3399	     86.067545	     9069.7460
        798.00	     1761.5847	     48.376332	     9070.0501
        799.00	     1655.0211	     57.104648	     9070.5692
        800.00	     1671.9042	     61.356325	     9071.0819
