Title=200220_em_NaOH-MeCN_2,0uM_Flu
Comment=
Signature=ISS_Experiment_Ver_1_0
Timestamp=Thu Feb 20 20:47:43 2020
Product=Vinci2
SoftwareVersion=BETA.2.4
BuildNumber=234
RealTimeStart=12130.2128557

AcquisitionType=Photon Counting
AcquisitionFormat=L
AcquisitionSide=Right
Detector Gains=(0.0, 0.0)

Measurable=Intensity
MaxIterations=10

RightEmissionWavelengthBandwidth=8.0
ExcitationWavelengthBandwidth=8.0
Visualization=Y:Intensity,X:EmissionWavelength,PlotType:2D


EmissionWavelength=type:numeric,unit:nm,from:400.0,to:800.0,step:1.0
ExcitationWavelength=type:numeric,unit:nm,fixed:512.0

Space=EmissionWavelength
Columns=EmissionWavelength,Intensity,IntensityStdError,RealTime
[Data]
        400.00	     38.107111	     2.1560968	     12133.181
        401.00	     42.007875	     2.1611743	     12133.749
        402.00	     43.066499	     1.6589495	     12134.054
        403.00	     41.091999	     1.5705103	     12134.467
        404.00	     43.997170	     1.4149285	     12134.983
        405.00	     42.350474	     2.0654445	     12135.288
        406.00	     45.413792	     2.7422477	     12135.701
        407.00	     41.725445	     1.6647802	     12136.213
        408.00	     42.239238	     1.9565924	     12136.518
        409.00	     44.138263	     1.3926580	     12136.931
        410.00	     42.553056	     1.4934899	     12137.444
        411.00	     43.012969	     1.9480172	     12137.748
        412.00	     42.244136	     1.1217350	     12138.161
        413.00	     44.639785	     1.8303096	     12138.674
        414.00	     44.205554	     1.7900314	     12138.978
        415.00	     39.846863	     1.6201970	     12139.392
        416.00	     45.578600	     1.8996742	     12139.904
        417.00	     45.615745	     1.6409193	     12140.209
        418.00	     45.463366	     2.1334839	     12140.513
        419.00	     47.121724	     1.0774248	     12140.926
        420.00	     46.757156	     1.2471461	     12141.445
        421.00	     46.913263	     1.7408296	     12141.750
        422.00	     47.928846	     1.7827229	     12142.054
        423.00	     46.686552	     1.9503783	     12142.467
        424.00	     50.621828	     1.5639142	     12142.986
        425.00	     47.485516	     2.4650715	     12143.291
        426.00	     51.728695	     2.2249794	     12143.595
        427.00	     47.977232	     1.5411704	     12144.008
        428.00	     48.881852	     1.9952296	     12144.527
        429.00	     54.358499	     2.2301538	     12144.832
        430.00	     52.366717	     1.5041561	     12145.350
        431.00	     55.858897	     1.4172570	     12145.655
        432.00	     51.670859	     1.5018543	     12146.171
        433.00	     51.585939	     2.4218488	     12146.475
        434.00	     53.876009	     1.7986885	     12146.889
        435.00	     56.217891	     1.8278364	     12147.401
        436.00	     54.895699	     1.5003107	     12147.706
        437.00	     53.655411	     1.2861217	     12148.010
        438.00	     54.887329	     2.0413308	     12148.532
        439.00	     58.206174	     1.9387892	     12149.045
        440.00	     61.120208	     2.1114529	     12149.349
        441.00	     59.172891	     2.0647578	     12149.762
        442.00	     56.247137	     1.6112445	     12150.275
        443.00	     57.391606	     1.5346221	     12150.787
        444.00	     56.599001	     1.5221421	     12151.092
        445.00	     59.341865	     2.0289365	     12151.396
        446.00	     58.386159	     2.5345238	     12151.810
        447.00	     60.383609	     2.9559634	     12152.329
        448.00	     59.629204	     1.8470125	     12152.633
        449.00	     60.064198	     1.6964677	     12153.149
        450.00	     61.869080	     1.3481418	     12153.453
        451.00	     64.941717	     2.3715074	     12153.866
        452.00	     64.064516	     2.9148579	     12154.379
        453.00	     61.542113	     2.7982974	     12154.684
        454.00	     69.649823	     2.7415100	     12155.199
        455.00	     67.244418	     1.9081319	     12155.504
        456.00	     70.120871	     1.9999752	     12156.020
        457.00	     71.627338	     2.2447714	     12156.324
        458.00	     80.730237	     1.9845383	     12156.737
        459.00	     83.485281	     2.7164205	     12157.253
        460.00	     87.576285	     2.0087146	     12157.558
        461.00	     101.40827	     3.4412620	     12157.971
        462.00	     106.86397	     3.8524476	     12158.483
        463.00	     115.46331	     3.6222088	     12158.788
        464.00	     128.72295	     3.0641543	     12159.306
        465.00	     141.82835	     4.0844331	     12159.611
        466.00	     163.03554	     4.0144253	     12159.915
        467.00	     180.67469	     3.3101505	     12160.329
        468.00	     193.81099	     4.0908754	     12160.847
        469.00	     225.61967	     4.7035051	     12161.152
        470.00	     248.16457	     4.7594424	     12161.457
        471.00	     278.57567	     4.4748951	     12161.870
        472.00	     301.27913	     5.4381368	     12162.389
        473.00	     340.32131	     5.6164842	     12162.693
        474.00	     375.14722	     5.9883370	     12162.997
        475.00	     415.53989	     3.3354507	     12163.411
        476.00	     432.26039	     4.2633520	     12163.930
        477.00	     470.75055	     8.5172724	     12164.234
        478.00	     513.95379	     3.9057652	     12164.647
        479.00	     537.53364	     5.9493622	     12165.163
        480.00	     562.53223	     4.0541943	     12165.467
        481.00	     596.83745	     3.3652140	     12165.881
        482.00	     629.34443	     6.6758403	     12166.393
        483.00	     654.75013	     9.8339178	     12166.698
        484.00	     683.09886	     6.7922965	     12167.111
        485.00	     707.31733	     8.3747658	     12167.623
        486.00	     742.26138	     4.8244843	     12167.928
        487.00	     772.30690	     9.0338480	     12168.233
        488.00	     800.35587	     6.6799358	     12168.646
        489.00	     826.50220	     8.9800229	     12169.165
        490.00	     877.37432	     13.179110	     12169.469
        491.00	     1007.8026	     10.594030	     12169.882
        492.00	     1143.1522	     32.988433	     12170.395
        493.00	     1476.9375	     60.899248	     12170.700
        494.00	     2361.2354	     5.4506488	     12171.113
        495.00	     3114.2573	     192.01030	     12171.625
        496.00	     5669.5039	     19.651990	     12171.930
        497.00	     7573.4457	     452.69762	     12172.452
        498.00	     11347.415	     628.74011	     12172.756
        499.00	     16516.063	     757.14478	     12173.061
        500.00	     24909.088	     54.963254	     12173.474
        501.00	     33147.035	     23.732605	     12173.993
        502.00	     42365.427	     60.624847	     12174.505
        503.00	     48838.206	     1385.2615	     12175.018
        504.00	     59132.919	     1336.2232	     12175.322
        505.00	     72899.017	     92.967074	     12175.736
        506.00	     83136.078	     93.792997	     12176.248
        507.00	     89942.083	     1333.7122	     12176.764
        508.00	     99457.633	     1298.6388	     12177.068
        509.00	     110645.53	     87.504721	     12177.482
        510.00	     115358.49	     1117.2073	     12177.994
        511.00	     124053.28	     84.213812	     12178.299
        512.00	     127104.27	     727.56144	     12178.814
        513.00	     130765.23	     594.46218	     12179.119
        514.00	     133836.01	     68.070354	     12179.532
        515.00	     134392.18	     241.39445	     12180.048
        516.00	     135272.54	     56.137469	     12180.353
        517.00	     134371.10	     69.840464	     12180.868
        518.00	     133306.79	     127.83313	     12181.172
        519.00	     131517.10	     276.51451	     12181.477
        520.00	     128103.92	     68.346704	     12181.890
        521.00	     126228.72	     444.88804	     12182.409
        522.00	     123189.87	     468.77031	     12182.714
        523.00	     118540.25	     100.44960	     12183.127
        524.00	     116108.85	     638.42999	     12183.640
        525.00	     111632.84	     691.90918	     12183.944
        526.00	     105432.93	     50.394879	     12184.357
        527.00	     100205.14	     95.283050	     12184.870
        528.00	     97370.306	     874.11458	     12185.382
        529.00	     92124.404	     783.18789	     12185.687
        530.00	     85852.080	     79.697204	     12186.100
        531.00	     83512.289	     653.12644	     12186.613
        532.00	     80024.987	     513.13749	     12186.917
        533.00	     76630.257	     73.232583	     12187.330
        534.00	     75922.315	     284.52680	     12187.843
        535.00	     75158.737	     163.77798	     12188.148
        536.00	     74850.984	     51.833060	     12188.561
        537.00	     74920.481	     71.794504	     12189.074
        538.00	     74870.566	     84.984301	     12189.378
        539.00	     74172.722	     74.217565	     12189.791
        540.00	     74009.546	     179.11360	     12190.304
        541.00	     73530.658	     188.11113	     12190.608
        542.00	     72641.353	     205.93972	     12190.913
        543.00	     71216.149	     63.445069	     12191.326
        544.00	     70776.061	     222.56785	     12191.844
        545.00	     69576.756	     236.57230	     12192.149
        546.00	     68309.356	     269.11609	     12192.454
        547.00	     66257.986	     51.049897	     12192.867
        548.00	     65559.514	     274.75326	     12193.386
        549.00	     64317.146	     325.62247	     12193.690
        550.00	     62243.404	     56.896081	     12193.995
        551.00	     60557.152	     78.257534	     12194.517
        552.00	     59155.683	     84.064480	     12195.029
        553.00	     58411.326	     349.18407	     12195.545
        554.00	     56088.878	     73.897161	     12195.849
        555.00	     55373.231	     283.78141	     12196.365
        556.00	     54072.088	     263.98282	     12196.670
        557.00	     52111.372	     67.639900	     12197.083
        558.00	     51388.014	     251.00106	     12197.595
        559.00	     50174.247	     274.68763	     12197.900
        560.00	     48775.059	     218.36760	     12198.204
        561.00	     47136.860	     42.844727	     12198.618
        562.00	     46591.164	     257.27270	     12199.137
        563.00	     44902.031	     78.938219	     12199.444
        564.00	     44475.665	     192.05825	     12199.960
        565.00	     43429.374	     234.08211	     12200.264
        566.00	     42087.868	     61.413159	     12200.678
        567.00	     41499.870	     200.02291	     12201.190
        568.00	     40258.041	     65.643250	     12201.495
        569.00	     39406.364	     41.058973	     12202.010
        570.00	     39060.091	     191.01687	     12202.523
        571.00	     38297.430	     180.66988	     12202.827
        572.00	     37791.172	     188.32782	     12203.240
        573.00	     36378.109	     75.931764	     12203.545
        574.00	     35671.106	     89.642866	     12204.061
        575.00	     35400.069	     165.59116	     12204.573
        576.00	     34655.637	     139.69836	     12204.878
        577.00	     33951.369	     164.92052	     12205.183
        578.00	     32880.585	     71.346453	     12205.596
        579.00	     32619.272	     134.21861	     12206.114
        580.00	     31975.553	     133.65622	     12206.419
        581.00	     30914.570	     71.516835	     12206.832
        582.00	     30572.712	     159.92750	     12207.348
        583.00	     29818.008	     176.88430	     12207.652
        584.00	     28821.174	     68.020445	     12208.066
        585.00	     28431.302	     144.59517	     12208.578
        586.00	     27513.254	     44.277469	     12208.883
        587.00	     27182.200	     157.86401	     12209.402
        588.00	     26349.898	     152.71566	     12209.706
        589.00	     25472.399	     54.941826	     12210.119
        590.00	     25152.874	     153.54492	     12210.635
        591.00	     24409.126	     131.46955	     12210.939
        592.00	     24153.263	     141.66793	     12211.352
        593.00	     22759.305	     54.990701	     12211.657
        594.00	     22426.193	     139.48752	     12212.176
        595.00	     21836.274	     133.30179	     12212.480
        596.00	     20911.363	     39.950888	     12212.894
        597.00	     20669.532	     113.40804	     12213.407
        598.00	     20087.523	     127.72700	     12213.711
        599.00	     19470.151	     115.19319	     12214.015
        600.00	     18694.873	     36.352663	     12214.429
        601.00	     18410.391	     154.94271	     12214.947
        602.00	     17876.472	     149.95747	     12215.252
        603.00	     17373.194	     105.22107	     12215.556
        604.00	     16683.213	     47.719702	     12215.969
        605.00	     16485.922	     93.949355	     12216.488
        606.00	     15916.798	     106.59169	     12216.793
        607.00	     15476.070	     87.254442	     12217.097
        608.00	     14859.232	     28.184786	     12217.510
        609.00	     14504.657	     39.191647	     12218.029
        610.00	     14107.826	     46.895453	     12218.545
        611.00	     13773.065	     68.200320	     12219.058
        612.00	     13313.158	     38.734996	     12219.362
        613.00	     12902.598	     37.086853	     12219.881
        614.00	     12633.665	     75.134363	     12220.394
        615.00	     12399.599	     77.190280	     12220.698
        616.00	     11804.540	     26.368155	     12221.111
        617.00	     11726.193	     88.546564	     12221.627
        618.00	     11429.791	     63.854968	     12221.931
        619.00	     11050.147	     24.850027	     12222.345
        620.00	     10772.812	     59.458156	     12222.857
        621.00	     10514.879	     62.657300	     12223.162
        622.00	     10139.372	     44.024994	     12223.575
        623.00	     9995.4559	     52.930850	     12224.088
        624.00	     9796.0906	     68.308651	     12224.392
        625.00	     9376.7350	     56.209987	     12224.697
        626.00	     9131.0405	     41.508141	     12225.110
        627.00	     9056.8750	     54.015289	     12225.629
        628.00	     8835.2163	     53.102256	     12225.933
        629.00	     8536.9697	     47.936468	     12226.237
        630.00	     8240.3159	     40.586783	     12226.651
        631.00	     8235.0441	     61.001304	     12227.170
        632.00	     7998.7837	     46.223113	     12227.474
        633.00	     7760.6043	     38.714815	     12227.779
        634.00	     7649.9599	     45.401858	     12228.304
        635.00	     7424.4704	     70.058250	     12228.608
        636.00	     7210.8367	     43.815148	     12229.021
        637.00	     7050.0199	     56.574565	     12229.534
        638.00	     6965.6796	     55.614776	     12229.839
        639.00	     6675.9214	     52.080740	     12230.252
        640.00	     6594.1931	     48.603606	     12230.765
        641.00	     6475.3092	     43.599790	     12231.069
        642.00	     6302.7992	     50.328983	     12231.373
        643.00	     6140.7595	     43.872899	     12231.787
        644.00	     6000.4105	     42.127862	     12232.305
        645.00	     5801.8331	     36.276971	     12232.610
        646.00	     5668.0929	     28.144393	     12233.129
        647.00	     5526.6631	     48.623889	     12233.641
        648.00	     5404.5016	     34.487691	     12233.946
        649.00	     5333.6092	     37.200296	     12234.465
        650.00	     5218.1071	     43.356782	     12234.769
        651.00	     5053.5611	     33.362250	     12235.182
        652.00	     4797.8000	     33.705319	     12235.698
        653.00	     4875.8382	     65.117958	     12236.211
        654.00	     4663.4045	     27.403106	     12236.515
        655.00	     4574.4223	     43.385714	     12237.031
        656.00	     4469.3578	     36.218379	     12237.335
        657.00	     4369.4931	     44.431863	     12237.851
        658.00	     4241.7191	     28.145085	     12238.156
        659.00	     4253.4798	     41.039504	     12238.671
        660.00	     4086.8300	     47.664292	     12238.976
        661.00	     3877.4192	     19.185951	     12239.280
        662.00	     3887.8795	     53.610738	     12239.802
        663.00	     3736.3525	     15.854778	     12240.107
        664.00	     3676.9519	     35.288302	     12240.626
        665.00	     3689.3663	     44.383977	     12240.930
        666.00	     3564.8512	     18.413697	     12241.343
        667.00	     3508.9958	     38.181191	     12241.856
        668.00	     3463.7160	     55.539350	     12242.160
        669.00	     3329.9752	     32.835266	     12242.574
        670.00	     3217.3407	     26.322719	     12243.086
        671.00	     3158.8063	     34.533365	     12243.391
        672.00	     3159.3488	     39.960478	     12243.906
        673.00	     3042.1055	     21.845532	     12244.211
        674.00	     3004.8149	     26.089120	     12244.515
        675.00	     2897.2124	     31.094136	     12244.928
        676.00	     2884.2143	     19.017143	     12245.447
        677.00	     2761.8848	     27.405290	     12245.752
        678.00	     2801.3198	     29.472806	     12246.056
        679.00	     2661.3109	     29.835451	     12246.470
        680.00	     2630.7319	     38.006910	     12246.988
        681.00	     2584.0304	     36.150698	     12247.293
        682.00	     2566.0566	     25.653610	     12247.598
        683.00	     2493.8514	     20.851021	     12248.119
        684.00	     2374.5847	     34.443593	     12248.424
        685.00	     2435.0873	     49.077612	     12248.939
        686.00	     2348.6673	     28.801045	     12249.244
        687.00	     2254.7257	     34.867937	     12249.657
        688.00	     2223.0960	     34.893126	     12250.170
        689.00	     2184.3941	     23.551967	     12250.474
        690.00	     2202.1232	     23.490821	     12250.779
        691.00	     2107.6729	     44.480709	     12251.192
        692.00	     2065.9383	     34.312894	     12251.711
        693.00	     1991.7250	     36.969034	     12252.015
        694.00	     2023.9024	     21.211260	     12252.534
        695.00	     1926.7631	     26.223027	     12252.839
        696.00	     1845.0948	     40.550908	     12253.357
        697.00	     1856.7486	     37.055830	     12253.662
        698.00	     1830.1903	     27.341813	     12254.178
        699.00	     1828.3541	     46.970282	     12254.482
        700.00	     1739.2129	     31.834843	     12254.895
        701.00	     1703.0032	     30.397948	     12255.411
        702.00	     1688.7444	     30.871270	     12255.924
        703.00	     1671.7170	     30.674929	     12256.436
        704.00	     1651.4184	     19.838449	     12256.741
        705.00	     1680.0446	     35.306294	     12257.260
        706.00	     1559.1084	     34.661495	     12257.564
        707.00	     1547.0981	     23.739647	     12258.083
        708.00	     1560.0301	     40.159242	     12258.387
        709.00	     1505.8825	     31.382251	     12258.801
        710.00	     1502.2896	     33.424505	     12259.313
        711.00	     1458.1359	     20.042020	     12259.618
        712.00	     1415.7796	     30.547885	     12260.134
        713.00	     1355.0724	     30.839088	     12260.646
        714.00	     1341.6439	     33.422256	     12261.159
        715.00	     1317.0853	     31.278357	     12261.672
        716.00	     1346.4362	     22.962184	     12262.187
        717.00	     1320.8952	     30.061253	     12262.492
        718.00	     1258.5240	     31.698908	     12262.905
        719.00	     1270.4420	     37.465918	     12263.418
        720.00	     1221.6128	     37.643060	     12263.930
        721.00	     1179.7977	     33.430896	     12264.442
        722.00	     1196.0191	     34.174654	     12264.747
        723.00	     1153.4322	     18.599416	     12265.263
        724.00	     1148.1267	     39.074007	     12265.776
        725.00	     1176.3758	     27.722591	     12266.080
        726.00	     1091.9136	     22.215769	     12266.384
        727.00	     1145.5202	     39.284116	     12266.798
        728.00	     1073.3075	     25.032757	     12267.317
        729.00	     1060.2312	     34.978844	     12267.621
        730.00	     1046.7720	     36.205831	     12268.034
        731.00	     976.55207	     36.816809	     12268.550
        732.00	     960.31736	     30.234725	     12269.063
        733.00	     983.04321	     33.868969	     12269.575
        734.00	     1015.3500	     41.046222	     12269.880
        735.00	     924.63653	     33.591341	     12270.293
        736.00	     959.14793	     36.906887	     12270.806
        737.00	     969.48728	     22.102036	     12271.110
        738.00	     954.41995	     28.972579	     12271.629
        739.00	     874.38757	     38.590677	     12271.934
        740.00	     891.24969	     41.717273	     12272.449
        741.00	     875.54723	     26.305497	     12272.754
        742.00	     879.81554	     50.862437	     12273.269
        743.00	     842.49694	     32.225296	     12273.574
        744.00	     809.79153	     28.474100	     12273.987
        745.00	     841.35802	     41.597360	     12274.500
        746.00	     822.01781	     29.707752	     12275.012
        747.00	     815.26834	     46.167967	     12275.317
        748.00	     790.76059	     19.973443	     12275.730
        749.00	     755.81906	     28.239005	     12276.242
        750.00	     739.60907	     38.818403	     12276.547
        751.00	     816.69935	     34.110128	     12276.852
        752.00	     758.40201	     36.171285	     12277.265
        753.00	     788.09205	     36.232487	     12277.784
        754.00	     725.06355	     40.241390	     12278.088
        755.00	     741.08237	     24.674898	     12278.604
        756.00	     713.95325	     34.517346	     12278.908
        757.00	     721.70446	     37.389087	     12279.212
        758.00	     752.57578	     42.580569	     12279.626
        759.00	     792.38445	     62.086258	     12280.145
        760.00	     771.64647	     33.771149	     12280.449
        761.00	     741.96442	     33.254196	     12280.754
        762.00	     746.33447	     33.676983	     12281.167
        763.00	     614.05735	     32.681758	     12281.686
        764.00	     654.48515	     27.065368	     12281.990
        765.00	     616.90425	     54.083162	     12282.295
        766.00	     682.37315	     39.287932	     12282.817
        767.00	     625.91485	     56.723185	     12283.121
        768.00	     676.56824	     30.322733	     12283.534
        769.00	     579.93028	     28.196282	     12284.050
        770.00	     685.82603	     37.697929	     12284.563
        771.00	     622.22727	     51.868207	     12285.075
        772.00	     663.69957	     51.461063	     12285.591
        773.00	     605.96834	     33.636662	     12285.895
        774.00	     582.41503	     35.722106	     12286.309
        775.00	     622.90487	     34.372292	     12286.821
        776.00	     598.44137	     32.757267	     12287.126
        777.00	     591.20350	     50.302285	     12287.430
        778.00	     682.84634	     26.668414	     12287.844
        779.00	     565.19508	     66.727938	     12288.362
        780.00	     567.41907	     65.243248	     12288.667
        781.00	     569.99229	     55.583141	     12289.080
        782.00	     578.98427	     50.256805	     12289.593
        783.00	     571.35626	     32.199786	     12289.898
        784.00	     503.43420	     41.496702	     12290.413
        785.00	     593.28116	     38.392114	     12290.925
        786.00	     448.43387	     52.729782	     12291.230
        787.00	     464.16478	     39.527101	     12291.746
        788.00	     453.09593	     61.982166	     12292.050
        789.00	     499.27360	     44.853079	     12292.355
        790.00	     581.00907	     28.947767	     12292.768
        791.00	     425.89025	     41.932843	     12293.290
        792.00	     465.05332	     42.835726	     12293.594
        793.00	     516.81489	     52.501421	     12294.007
        794.00	     454.40000	     52.051257	     12294.520
        795.00	     510.72306	     42.050274	     12294.825
        796.00	     491.57121	     54.481466	     12295.238
        797.00	     456.25927	     46.895236	     12295.750
        798.00	     447.38659	     30.928346	     12296.055
        799.00	     356.95128	     30.221662	     12296.468
        800.00	     386.74693	     50.180012	     12296.984
