Title=200220_em_MeCN_2,0uM_NR
Comment=
Signature=ISS_Experiment_Ver_1_0
Timestamp=Thu Feb 20 14:32:11 2020
Product=Vinci2
SoftwareVersion=BETA.2.4
BuildNumber=234
RealTimeStart=5129.75768065

AcquisitionType=Photon Counting
AcquisitionFormat=L
AcquisitionSide=Right
Detector Gains=(0.0, 0.0)

Measurable=Intensity
MaxIterations=10

RightEmissionWavelengthBandwidth=8.0
ExcitationWavelengthBandwidth=8.0
Visualization=Y:Intensity,X:EmissionWavelength,PlotType:2D


EmissionWavelength=type:numeric,unit:nm,from:400.0,to:800.0,step:1.0
ExcitationWavelength=type:numeric,unit:nm,fixed:534.0

Space=EmissionWavelength
Columns=EmissionWavelength,Intensity,IntensityStdError,RealTime
[Data]
        400.00	     225.71490	     4.2924635	     5132.7367
        401.00	     228.56145	     3.6624473	     5133.3206
        402.00	     229.00003	     1.6816879	     5133.6252
        403.00	     224.90899	     2.6882806	     5134.0385
        404.00	     227.88161	     3.3581677	     5134.5511
        405.00	     221.00656	     3.0731443	     5134.8557
        406.00	     223.22765	     2.9071123	     5135.2688
        407.00	     222.72489	     3.5252433	     5135.5732
        408.00	     218.24740	     2.7716801	     5136.0890
        409.00	     228.64436	     2.7957925	     5136.3936
        410.00	     218.22603	     2.6024656	     5136.8067
        411.00	     219.16671	     3.8275074	     5137.3192
        412.00	     216.79881	     3.0565000	     5137.6238
        413.00	     212.22044	     2.1532089	     5137.9283
        414.00	     214.12916	     3.3650345	     5138.3415
        415.00	     219.94195	     2.9099597	     5138.8604
        416.00	     220.40655	     2.6428233	     5139.1646
        417.00	     217.39785	     2.3471536	     5139.5780
        418.00	     216.84634	     3.8630207	     5140.0908
        419.00	     216.44472	     4.6187515	     5140.6033
        420.00	     214.46956	     3.0393529	     5140.9078
        421.00	     218.17078	     4.7129977	     5141.2120
        422.00	     213.43638	     3.1483746	     5141.6254
        423.00	     217.11089	     2.9293390	     5142.1441
        424.00	     212.48270	     4.2743465	     5142.4490
        425.00	     215.82433	     2.9127350	     5142.9676
        426.00	     216.27367	     4.4217303	     5143.2719
        427.00	     222.46738	     2.7939542	     5143.6852
        428.00	     221.48279	     3.8723221	     5144.2010
        429.00	     219.74563	     3.2281894	     5144.5054
        430.00	     219.05844	     2.2044346	     5144.8100
        431.00	     218.70418	     4.6916604	     5145.1301
        432.00	     215.16142	     3.0490105	     5145.5432
        433.00	     219.22840	     2.8531447	     5146.0526
        434.00	     218.92474	     2.0859834	     5146.3573
        435.00	     227.11265	     3.8030080	     5146.6615
        436.00	     225.17270	     4.1106987	     5147.0749
        437.00	     223.10869	     3.1013064	     5147.5935
        438.00	     221.45279	     2.9675854	     5147.8986
        439.00	     221.92312	     3.4110698	     5148.4172
        440.00	     224.67381	     3.2726495	     5148.9299
        441.00	     229.11217	     3.7766380	     5149.4422
        442.00	     230.59368	     2.7148884	     5149.7468
        443.00	     226.34383	     3.4559260	     5150.0512
        444.00	     231.80167	     3.2913751	     5150.4642
        445.00	     230.90865	     4.4169607	     5150.9832
        446.00	     232.40079	     3.3320479	     5151.2878
        447.00	     237.38899	     4.1168945	     5151.8065
        448.00	     240.37630	     4.6741143	     5152.1110
        449.00	     246.29352	     2.7749009	     5152.5241
        450.00	     242.75620	     2.9045282	     5152.8288
        451.00	     240.02743	     3.7240698	     5153.3474
        452.00	     250.47357	     3.9319927	     5153.6524
        453.00	     253.97029	     2.7667366	     5154.1677
        454.00	     252.11274	     3.8808985	     5154.4722
        455.00	     255.20722	     4.2658368	     5154.8855
        456.00	     251.50124	     2.6234762	     5155.3980
        457.00	     268.66149	     3.3848890	     5155.7031
        458.00	     266.35970	     3.8855491	     5156.2216
        459.00	     261.89436	     4.4832771	     5156.5261
        460.00	     264.90631	     5.5736053	     5156.9391
        461.00	     272.90518	     2.2817205	     5157.4516
        462.00	     273.30601	     2.9468201	     5157.7565
        463.00	     286.12122	     5.1730875	     5158.2719
        464.00	     284.04267	     3.3836891	     5158.5768
        465.00	     291.85803	     2.1756010	     5159.0920
        466.00	     280.49362	     2.6191647	     5159.3971
        467.00	     283.46048	     3.4841919	     5159.9123
        468.00	     287.70510	     2.5821641	     5160.2167
        469.00	     292.29143	     6.5834990	     5160.6300
        470.00	     293.83714	     2.5970415	     5161.1426
        471.00	     300.23452	     4.2934860	     5161.4471
        472.00	     297.25566	     4.0516358	     5161.7517
        473.00	     302.25475	     3.0811389	     5162.1651
        474.00	     301.22292	     3.0062167	     5162.6838
        475.00	     306.28888	     2.8686604	     5162.9880
        476.00	     316.23229	     6.1176832	     5163.2924
        477.00	     321.37246	     3.3613586	     5163.7059
        478.00	     328.52343	     5.0492238	     5164.2247
        479.00	     324.46651	     5.4512624	     5164.5296
        480.00	     333.70757	     4.8578668	     5165.0482
        481.00	     330.92803	     4.3921886	     5165.3526
        482.00	     341.62529	     5.0450133	     5165.7657
        483.00	     346.72996	     5.0708998	     5166.2784
        484.00	     352.82929	     3.8141227	     5166.5829
        485.00	     356.00744	     5.9742153	     5166.9961
        486.00	     363.75500	     3.3676838	     5167.5088
        487.00	     372.11739	     5.2273970	     5168.0212
        488.00	     370.27869	     5.6306498	     5168.3256
        489.00	     388.09343	     4.3675714	     5168.6304
        490.00	     387.98068	     3.5560940	     5169.0434
        491.00	     409.74852	     5.6038754	     5169.5624
        492.00	     402.46522	     6.2954858	     5169.8669
        493.00	     413.70726	     5.3495546	     5170.1712
        494.00	     416.02398	     3.9242811	     5170.5843
        495.00	     428.17694	     4.5437345	     5171.1032
        496.00	     431.25082	     5.9034710	     5171.4081
        497.00	     439.20478	     5.5658154	     5171.9264
        498.00	     451.79016	     8.8760471	     5172.2314
        499.00	     486.07887	     6.2845795	     5172.6443
        500.00	     498.29581	     5.4291740	     5173.1599
        501.00	     534.50341	     4.3551110	     5173.4643
        502.00	     539.10388	     3.0199878	     5173.8777
        503.00	     559.58977	     9.1662342	     5174.3905
        504.00	     597.85876	     4.5269758	     5174.6948
        505.00	     624.30922	     8.0765341	     5175.1080
        506.00	     632.17507	     6.3829154	     5175.6207
        507.00	     654.53755	     4.7286733	     5175.9250
        508.00	     660.38642	     5.7011223	     5176.2327
        509.00	     679.30327	     8.9258568	     5176.7517
        510.00	     720.06372	     4.5919373	     5177.0560
        511.00	     720.13347	     9.2934633	     5177.4692
        512.00	     748.76818	     8.1140944	     5177.9850
        513.00	     826.79793	     17.430294	     5178.2894
        514.00	     1006.4252	     6.1994149	     5178.7027
        515.00	     1193.9609	     48.042948	     5179.2154
        516.00	     1624.8508	     77.553657	     5179.5196
        517.00	     2216.5980	     94.704131	     5179.8242
        518.00	     3160.2392	     21.072157	     5180.2377
        519.00	     3669.2121	     138.27458	     5180.7564
        520.00	     4580.2347	     150.15896	     5181.0608
        521.00	     5567.5239	     143.94827	     5181.3652
        522.00	     6986.2068	     15.332129	     5181.7784
        523.00	     7645.8315	     185.89492	     5182.2971
        524.00	     8885.9406	     182.82551	     5182.6017
        525.00	     10512.494	     36.132604	     5182.9063
        526.00	     11212.007	     193.05143	     5183.4280
        527.00	     12890.500	     32.253263	     5183.7331
        528.00	     13640.462	     167.16882	     5184.2513
        529.00	     14832.313	     157.27823	     5184.5562
        530.00	     15897.456	     149.65252	     5184.8605
        531.00	     17175.811	     30.256777	     5185.2737
        532.00	     17649.911	     98.495922	     5185.7924
        533.00	     18213.780	     72.262966	     5186.0968
        534.00	     18462.618	     44.105177	     5186.5102
        535.00	     18609.687	     33.442610	     5186.8148
        536.00	     18561.560	     31.693281	     5187.3306
        537.00	     18688.369	     51.561267	     5187.8429
        538.00	     18558.715	     56.046856	     5188.1473
        539.00	     18465.557	     44.274783	     5188.5607
        540.00	     18388.239	     49.161963	     5189.0732
        541.00	     18377.808	     43.672153	     5189.3782
        542.00	     18478.664	     35.563705	     5189.8935
        543.00	     18714.248	     40.303352	     5190.1978
        544.00	     19256.105	     23.104646	     5190.6113
        545.00	     19735.456	     94.151458	     5191.1238
        546.00	     20603.797	     158.59979	     5191.4285
        547.00	     22264.125	     30.254043	     5191.8416
        548.00	     23420.321	     208.68955	     5192.3542
        549.00	     25520.426	     309.67464	     5192.6590
        550.00	     28965.352	     37.633013	     5193.0719
        551.00	     30905.071	     432.09181	     5193.5843
        552.00	     34306.920	     483.62634	     5193.8892
        553.00	     39383.721	     63.130916	     5194.2930
        554.00	     42104.944	     632.79647	     5194.8148
        555.00	     48444.692	     47.666763	     5195.1196
        556.00	     51904.841	     778.68771	     5195.6352
        557.00	     57692.988	     836.49680	     5195.9394
        558.00	     65864.479	     83.729796	     5196.3527
        559.00	     70009.639	     930.88226	     5196.8654
        560.00	     79272.711	     82.224347	     5197.1702
        561.00	     83928.657	     1146.6113	     5197.6856
        562.00	     91939.156	     1054.7061	     5197.9901
        563.00	     102290.12	     80.041409	     5198.4032
        564.00	     107690.77	     1161.9533	     5198.9190
        565.00	     116258.20	     1118.0560	     5199.2233
        566.00	     127734.23	     78.980702	     5199.6366
        567.00	     133255.94	     1197.7199	     5200.1492
        568.00	     142159.59	     1095.9853	     5200.4536
        569.00	     151157.01	     1091.6531	     5200.7582
        570.00	     161594.98	     106.58439	     5201.1714
        571.00	     167324.35	     1072.2240	     5201.6904
        572.00	     175286.78	     989.58671	     5201.9949
        573.00	     182967.20	     900.01032	     5202.2993
        574.00	     191905.22	     66.453679	     5202.7125
        575.00	     196964.34	     801.45639	     5203.2311
        576.00	     202701.33	     675.08566	     5203.5359
        577.00	     208838.64	     589.72540	     5203.8401
        578.00	     213035.36	     550.38968	     5204.2532
        579.00	     220309.18	     58.883478	     5204.5579
        580.00	     224116.45	     460.02476	     5205.0797
        581.00	     228399.77	     374.18151	     5205.3842
        582.00	     232884.07	     42.150932	     5205.7976
        583.00	     236097.33	     336.22735	     5206.3100
        584.00	     239850.46	     258.95598	     5206.6146
        585.00	     243460.24	     253.74294	     5206.9189
        586.00	     247500.46	     49.429204	     5207.3324
        587.00	     250040.12	     227.03881	     5207.8514
        588.00	     252862.26	     229.13198	     5208.1557
        589.00	     256828.09	     59.803064	     5208.5689
        590.00	     259509.50	     197.52538	     5209.0814
        591.00	     262490.56	     51.489576	     5209.3862
        592.00	     265606.97	     184.98207	     5209.9018
        593.00	     268086.69	     161.36614	     5210.2061
        594.00	     270757.09	     96.470031	     5210.5108
        595.00	     273872.33	     71.247458	     5210.9239
        596.00	     276643.89	     95.079579	     5211.4459
        597.00	     279657.83	     83.483065	     5211.7501
        598.00	     282402.26	     84.902541	     5212.1635
        599.00	     285013.64	     85.543538	     5212.6760
        600.00	     287850.17	     89.962524	     5212.9807
        601.00	     290381.13	     112.00170	     5213.3936
        602.00	     293691.69	     77.429179	     5213.6981
        603.00	     296326.11	     99.481345	     5214.2142
        604.00	     299106.06	     76.800744	     5214.7269
        605.00	     302231.17	     67.527233	     5215.0314
        606.00	     305396.32	     70.582164	     5215.4444
        607.00	     308031.93	     53.031852	     5215.9569
        608.00	     310799.38	     54.860678	     5216.2616
        609.00	     314339.58	     89.607071	     5216.6747
        610.00	     317550.52	     58.191899	     5217.1875
        611.00	     320628.02	     77.289857	     5217.4920
        612.00	     323845.81	     62.070321	     5218.0108
        613.00	     327265.00	     44.764258	     5218.5234
        614.00	     330128.04	     71.141841	     5218.8280
        615.00	     333430.55	     51.898426	     5219.2409
        616.00	     336897.98	     94.762276	     5219.7534
        617.00	     340291.12	     96.095196	     5220.0579
        618.00	     344185.08	     99.588824	     5220.4713
        619.00	     347505.63	     112.40909	     5220.9839
        620.00	     351559.96	     67.576042	     5221.2884
        621.00	     355265.17	     43.655000	     5221.7015
        622.00	     358595.04	     67.371521	     5222.2142
        623.00	     362888.43	     77.377170	     5222.5189
        624.00	     366455.82	     83.671181	     5222.9319
        625.00	     370239.29	     82.455211	     5223.4447
        626.00	     374568.07	     109.96541	     5223.9569
        627.00	     378713.54	     111.53475	     5224.2615
        628.00	     382122.33	     100.70929	     5224.5663
        629.00	     386696.22	     64.467366	     5224.9793
        630.00	     391136.63	     90.598671	     5225.4981
        631.00	     394911.02	     68.385552	     5225.8026
        632.00	     399178.78	     108.81658	     5226.2159
        633.00	     404085.06	     72.171847	     5226.7285
        634.00	     408208.98	     139.78470	     5227.0329
        635.00	     411420.57	     111.83088	     5227.4461
        636.00	     416260.13	     175.21926	     5227.9588
        637.00	     420832.04	     164.68786	     5228.2631
        638.00	     424629.22	     78.867073	     5228.6765
        639.00	     429665.09	     153.74253	     5229.1892
        640.00	     433130.45	     161.87811	     5229.4936
        641.00	     438208.61	     246.56477	     5230.0095
        642.00	     442396.17	     247.04061	     5230.3137
        643.00	     446359.73	     250.85230	     5230.6182
        644.00	     450320.87	     115.57017	     5231.0315
        645.00	     455230.52	     241.71548	     5231.5505
        646.00	     459649.26	     355.82036	     5231.8549
        647.00	     464115.14	     241.69048	     5232.1592
        648.00	     467344.33	     125.70387	     5232.5725
        649.00	     472473.89	     271.28684	     5233.0913
        650.00	     476682.46	     352.68362	     5233.3960
        651.00	     481515.06	     350.33322	     5233.7002
        652.00	     485127.17	     88.186949	     5234.1134
        653.00	     490743.95	     400.79885	     5234.6323
        654.00	     493694.83	     89.521592	     5234.9399
        655.00	     498421.87	     454.95471	     5235.4556
        656.00	     502629.07	     394.87569	     5235.7602
        657.00	     505720.45	     159.39868	     5236.1733
        658.00	     510650.85	     544.91280	     5236.6890
        659.00	     513781.05	     615.27304	     5236.9937
        660.00	     515691.37	     156.82540	     5237.4067
        661.00	     520303.05	     672.41291	     5237.9195
        662.00	     521001.75	     140.08203	     5238.2243
        663.00	     525999.77	     694.05969	     5238.7397
        664.00	     529151.26	     820.81651	     5239.0439
        665.00	     528323.89	     227.16906	     5239.4575
        666.00	     533529.03	     979.92676	     5239.9729
        667.00	     534801.00	     975.89513	     5240.2776
        668.00	     533369.55	     175.98078	     5240.6907
        669.00	     536974.38	     1153.2807	     5241.2034
        670.00	     538490.30	     1133.0623	     5241.5079
        671.00	     537090.83	     1262.0338	     5241.8123
        672.00	     534379.47	     222.78847	     5242.2255
        673.00	     534238.79	     248.29885	     5242.7446
        674.00	     536636.15	     1312.2635	     5243.2603
        675.00	     532056.76	     341.53523	     5243.5649
        676.00	     533621.79	     1596.0061	     5244.0800
        677.00	     531734.62	     1434.4827	     5244.3847
        678.00	     525613.09	     277.15709	     5244.7979
        679.00	     527053.18	     1683.1254	     5245.3107
        680.00	     518959.78	     228.19956	     5245.6154
        681.00	     520507.30	     1904.4648	     5246.1306
        682.00	     512562.32	     231.58560	     5246.4358
        683.00	     508278.53	     349.96012	     5246.9512
        684.00	     502822.47	     291.31816	     5247.4638
        685.00	     503209.31	     1978.0328	     5247.9761
        686.00	     496849.00	     1922.5279	     5248.2810
        687.00	     486879.16	     355.77233	     5248.6940
        688.00	     487278.24	     2206.5309	     5249.2065
        689.00	     480030.62	     2231.1598	     5249.5112
        690.00	     469242.83	     449.44906	     5249.9244
        691.00	     468546.95	     2041.6394	     5250.4370
        692.00	     461995.60	     2238.5983	     5250.7413
        693.00	     449880.67	     424.28141	     5251.1546
        694.00	     449360.21	     2113.4446	     5251.6673
        695.00	     441448.49	     2127.9460	     5251.9716
        696.00	     429986.91	     420.81656	     5252.3849
        697.00	     427272.05	     2445.9366	     5252.8976
        698.00	     415778.93	     486.97154	     5253.2025
        699.00	     408094.65	     299.60303	     5253.7180
        700.00	     406217.78	     2026.6755	     5254.2302
        701.00	     398245.70	     1788.7253	     5254.5347
        702.00	     385718.83	     431.33877	     5254.9481
        703.00	     377725.76	     556.99636	     5255.4610
        704.00	     370665.31	     242.77871	     5255.9736
        705.00	     363336.21	     341.73262	     5256.4892
        706.00	     355834.52	     377.18922	     5257.0019
        707.00	     353178.39	     2196.9768	     5257.5144
        708.00	     346042.32	     2122.8227	     5257.8189
        709.00	     338420.64	     1710.1372	     5258.1234
        710.00	     333811.11	     1958.5413	     5258.5363
        711.00	     318676.83	     430.73622	     5258.8410
        712.00	     315618.37	     2124.6545	     5259.3628
        713.00	     307961.97	     1794.8066	     5259.6673
        714.00	     298363.94	     269.63488	     5260.0806
        715.00	     294892.32	     1776.8279	     5260.5931
        716.00	     288738.47	     1544.7263	     5260.8980
        717.00	     277993.67	     511.35876	     5261.3109
        718.00	     275654.44	     1640.2493	     5261.8236
        719.00	     264706.32	     422.97634	     5262.1284
        720.00	     262924.50	     1723.1257	     5262.6435
        721.00	     252386.72	     298.43522	     5262.9487
        722.00	     250003.05	     1517.0971	     5263.4671
        723.00	     243566.73	     1355.9225	     5263.7715
        724.00	     238564.25	     1595.3526	     5264.0760
        725.00	     232695.47	     1313.4538	     5264.3961
        726.00	     223456.39	     481.82039	     5264.8090
        727.00	     221222.36	     1467.5708	     5265.3188
        728.00	     215364.98	     1612.7943	     5265.6235
        729.00	     209149.48	     1211.8697	     5265.9278
        730.00	     201652.01	     316.61482	     5266.3410
        731.00	     199637.56	     1727.4571	     5266.8598
        732.00	     191825.54	     459.41961	     5267.1645
        733.00	     189299.69	     1377.4661	     5267.6830
        734.00	     184600.53	     1089.5014	     5267.9875
        735.00	     177850.25	     313.66748	     5268.4007
        736.00	     175738.00	     980.64934	     5268.9133
        737.00	     171563.62	     1095.1466	     5269.2178
        738.00	     164102.79	     495.71968	     5269.6311
        739.00	     162622.29	     1008.1059	     5270.1435
        740.00	     156517.96	     370.11724	     5270.4486
        741.00	     154184.18	     1084.5842	     5270.9672
        742.00	     147731.07	     432.56129	     5271.2719
        743.00	     147300.28	     1151.7888	     5271.7871
        744.00	     143951.56	     902.99170	     5272.0916
        745.00	     138207.48	     369.27683	     5272.5049
        746.00	     136178.10	     697.83363	     5273.0173
        747.00	     130949.05	     338.54448	     5273.3225
        748.00	     128907.13	     954.07829	     5273.8376
        749.00	     126202.06	     707.28614	     5274.1421
        750.00	     122509.78	     673.48591	     5274.4468
        751.00	     117803.58	     377.89156	     5274.8597
        752.00	     117169.28	     785.72311	     5275.3790
        753.00	     113844.37	     742.95761	     5275.6833
        754.00	     110956.74	     806.07004	     5275.9878
        755.00	     106217.04	     260.99853	     5276.4009
        756.00	     105647.34	     788.86956	     5276.9195
        757.00	     103025.49	     845.46167	     5277.2243
        758.00	     100692.76	     677.37481	     5277.5288
        759.00	     96223.860	     428.31941	     5277.9418
        760.00	     95621.321	     669.58800	     5278.4607
        761.00	     93162.155	     402.18855	     5278.7655
        762.00	     89893.900	     264.33439	     5279.0700
        763.00	     87521.337	     339.98820	     5279.5919
        764.00	     86133.925	     551.24462	     5280.1042
        765.00	     83984.792	     591.94883	     5280.4086
        766.00	     81362.820	     597.95732	     5280.7130
        767.00	     79362.068	     314.11432	     5281.1265
        768.00	     77681.601	     562.38859	     5281.6453
        769.00	     74816.661	     371.15236	     5281.9502
        770.00	     74652.609	     571.40365	     5282.4654
        771.00	     72238.144	     489.78438	     5282.7699
        772.00	     69351.739	     279.68598	     5283.1832
        773.00	     68672.692	     426.21188	     5283.6960
        774.00	     66066.295	     299.45275	     5284.0009
        775.00	     64355.202	     222.96008	     5284.5163
        776.00	     63372.434	     377.55732	     5285.0284
        777.00	     61035.767	     176.89549	     5285.3336
        778.00	     59881.062	     463.17412	     5285.8491
        779.00	     58566.242	     447.65498	     5286.3617
        780.00	     57703.622	     376.24180	     5286.6660
        781.00	     54857.115	     276.08666	     5287.0794
        782.00	     53176.424	     324.16135	     5287.5953
        783.00	     53502.442	     332.63727	     5288.1075
        784.00	     51151.273	     245.83261	     5288.4124
        785.00	     50176.865	     353.17833	     5288.9276
        786.00	     49407.214	     418.29821	     5289.2322
        787.00	     47443.244	     207.99712	     5289.5369
        788.00	     46727.715	     302.54718	     5290.0587
        789.00	     45875.385	     270.89266	     5290.3631
        790.00	     45032.863	     301.77960	     5290.6674
        791.00	     43770.223	     155.46504	     5291.0809
        792.00	     42879.814	     369.22173	     5291.5998
        793.00	     42362.870	     272.72765	     5291.9042
        794.00	     41592.800	     239.70723	     5292.3173
        795.00	     40576.669	     282.61249	     5292.8332
        796.00	     38989.894	     221.01617	     5293.1374
        797.00	     36638.840	     300.62316	     5293.5507
        798.00	     35122.055	     152.92531	     5294.0637
        799.00	     33660.219	     162.13805	     5294.5760
        800.00	     32210.797	     249.57589	     5294.8803
