Title=200220_em_NaOH-EtOH_2,0uM_NR
Comment=
Signature=ISS_Experiment_Ver_1_0
Timestamp=Thu Feb 20 20:04:59 2020
Product=Vinci2
SoftwareVersion=BETA.2.4
BuildNumber=234
RealTimeStart=11333.6264817

AcquisitionType=Photon Counting
AcquisitionFormat=L
AcquisitionSide=Right
Detector Gains=(0.0, 0.0)

Measurable=Intensity
MaxIterations=10

RightEmissionWavelengthBandwidth=8.0
ExcitationWavelengthBandwidth=8.0
Visualization=Y:Intensity,X:EmissionWavelength,PlotType:2D


EmissionWavelength=type:numeric,unit:nm,from:400.0,to:800.0,step:1.0
ExcitationWavelength=type:numeric,unit:nm,fixed:549.0

Space=EmissionWavelength
Columns=EmissionWavelength,Intensity,IntensityStdError,RealTime
[Data]
        400.00	     189.54426	     1.5953301	     11336.521
        401.00	     184.57727	     2.7893629	     11337.105
        402.00	     196.45937	     4.5353361	     11337.409
        403.00	     189.27916	     2.9416103	     11337.823
        404.00	     185.11672	     2.9303089	     11338.335
        405.00	     186.15518	     3.3164029	     11338.640
        406.00	     183.01895	     2.6787121	     11338.944
        407.00	     180.06868	     2.3212880	     11339.357
        408.00	     179.83985	     2.8186784	     11339.876
        409.00	     179.61192	     3.1606697	     11340.181
        410.00	     173.15786	     3.7567626	     11340.485
        411.00	     173.97817	     4.4570711	     11340.899
        412.00	     175.32564	     3.5055206	     11341.417
        413.00	     174.02258	     2.6420046	     11341.722
        414.00	     170.92209	     3.6205886	     11342.135
        415.00	     171.88932	     2.1683676	     11342.648
        416.00	     168.66130	     3.6918267	     11342.952
        417.00	     174.15057	     2.5317089	     11343.365
        418.00	     168.96495	     2.4548162	     11343.881
        419.00	     166.21657	     1.4963560	     11344.185
        420.00	     167.46065	     2.1241215	     11344.599
        421.00	     169.05308	     2.0164421	     11345.111
        422.00	     170.54662	     2.8118107	     11345.416
        423.00	     167.98411	     3.1938012	     11345.720
        424.00	     169.43803	     2.9853873	     11346.133
        425.00	     170.85996	     4.3615706	     11346.652
        426.00	     170.19737	     3.6970262	     11346.957
        427.00	     171.55989	     2.2617431	     11347.261
        428.00	     169.31574	     2.5819699	     11347.674
        429.00	     173.65299	     3.5542035	     11348.193
        430.00	     173.70366	     3.3047455	     11348.498
        431.00	     170.70742	     2.6317802	     11348.802
        432.00	     174.92050	     3.3092235	     11349.215
        433.00	     174.01372	     2.0008027	     11349.734
        434.00	     173.33917	     2.7226121	     11350.039
        435.00	     175.28157	     4.0948854	     11350.558
        436.00	     176.82244	     2.4086716	     11350.862
        437.00	     176.98134	     2.3244348	     11351.378
        438.00	     180.39571	     2.2932032	     11351.682
        439.00	     174.93276	     2.3355845	     11352.096
        440.00	     174.81642	     2.9893321	     11352.608
        441.00	     178.81034	     1.6554180	     11352.919
        442.00	     183.86793	     4.1433805	     11353.316
        443.00	     177.53760	     1.9921883	     11353.839
        444.00	     177.02924	     4.5965326	     11354.143
        445.00	     187.00854	     3.2130637	     11354.658
        446.00	     180.57934	     2.9410569	     11354.963
        447.00	     181.97492	     2.8958700	     11355.268
        448.00	     190.77325	     4.2247263	     11355.681
        449.00	     186.70923	     4.4503665	     11356.203
        450.00	     189.36303	     3.4969525	     11356.507
        451.00	     188.92367	     3.9006338	     11356.920
        452.00	     199.82089	     3.3990544	     11357.433
        453.00	     194.58395	     4.7406935	     11357.738
        454.00	     199.86246	     3.7891842	     11358.253
        455.00	     195.06846	     1.8560212	     11358.558
        456.00	     197.52799	     3.4079436	     11358.862
        457.00	     195.69752	     2.8579889	     11359.275
        458.00	     202.99846	     2.6935925	     11359.794
        459.00	     205.39021	     3.4265521	     11360.310
        460.00	     211.95691	     2.3767431	     11360.615
        461.00	     205.64678	     1.8021422	     11361.130
        462.00	     213.21689	     3.5141673	     11361.434
        463.00	     209.76645	     3.4033122	     11361.739
        464.00	     220.83463	     3.0346325	     11362.261
        465.00	     221.08054	     3.0431821	     11362.566
        466.00	     214.48866	     4.2917406	     11362.979
        467.00	     222.27978	     3.0536583	     11363.492
        468.00	     220.70528	     3.4554309	     11363.796
        469.00	     224.05945	     2.9206269	     11364.209
        470.00	     226.74069	     2.9514543	     11364.514
        471.00	     228.06655	     3.5050915	     11365.029
        472.00	     233.67338	     2.8291027	     11365.334
        473.00	     226.83342	     4.2498660	     11365.850
        474.00	     232.10856	     3.4040503	     11366.154
        475.00	     237.17149	     4.0071468	     11366.670
        476.00	     237.49998	     2.9983768	     11366.974
        477.00	     233.35232	     3.7265916	     11367.387
        478.00	     235.72053	     3.6126570	     11367.900
        479.00	     236.29371	     3.3237860	     11368.413
        480.00	     239.47868	     3.9446999	     11368.717
        481.00	     243.87931	     2.9084416	     11369.022
        482.00	     235.28127	     2.1070062	     11369.435
        483.00	     248.62898	     4.3887245	     11369.954
        484.00	     244.60931	     2.4763142	     11370.258
        485.00	     251.25810	     3.0760941	     11370.563
        486.00	     250.46683	     2.9544365	     11370.976
        487.00	     253.66598	     3.5670505	     11371.495
        488.00	     257.76066	     4.3046288	     11371.799
        489.00	     261.47740	     5.7880621	     11372.103
        490.00	     256.96933	     3.1738628	     11372.517
        491.00	     263.36238	     4.6798692	     11373.036
        492.00	     272.74109	     4.3886454	     11373.341
        493.00	     276.75215	     4.2378915	     11373.859
        494.00	     275.94770	     5.4053051	     11374.371
        495.00	     283.18461	     3.3288937	     11374.677
        496.00	     283.44608	     4.3253771	     11375.192
        497.00	     294.20932	     3.4680181	     11375.496
        498.00	     308.27917	     3.9830953	     11375.910
        499.00	     323.92739	     4.3936664	     11376.422
        500.00	     347.84962	     3.4727817	     11376.727
        501.00	     361.21361	     7.6754704	     11377.242
        502.00	     393.39208	     6.0796824	     11377.547
        503.00	     404.62233	     5.0966860	     11378.063
        504.00	     424.48913	     4.7297481	     11378.575
        505.00	     456.31533	     4.8215050	     11378.880
        506.00	     485.44490	     7.9384690	     11379.399
        507.00	     519.79319	     6.7319391	     11379.703
        508.00	     541.08623	     7.2010092	     11380.222
        509.00	     562.18780	     8.5207870	     11380.526
        510.00	     584.14149	     5.5352965	     11380.940
        511.00	     626.92784	     8.7847804	     11381.452
        512.00	     638.12170	     10.929098	     11381.757
        513.00	     668.02557	     5.8414940	     11382.170
        514.00	     677.81361	     7.0693762	     11382.682
        515.00	     701.16838	     7.3562450	     11382.987
        516.00	     710.42027	     8.2519087	     11383.400
        517.00	     722.48362	     12.273479	     11383.913
        518.00	     749.42839	     10.564348	     11384.218
        519.00	     754.32855	     6.4136691	     11384.733
        520.00	     761.68586	     9.6259010	     11385.038
        521.00	     796.07307	     7.9518455	     11385.451
        522.00	     806.98705	     7.5356295	     11385.963
        523.00	     816.56870	     6.2366955	     11386.268
        524.00	     855.43639	     8.6988859	     11386.681
        525.00	     855.12309	     9.3017429	     11387.194
        526.00	     877.76596	     11.145470	     11387.498
        527.00	     946.31641	     5.9528598	     11387.911
        528.00	     986.94049	     16.975938	     11388.424
        529.00	     1142.0104	     29.579649	     11388.728
        530.00	     1580.5467	     9.0709964	     11389.142
        531.00	     2047.9816	     112.50006	     11389.654
        532.00	     3663.2432	     8.9905324	     11389.959
        533.00	     5749.3743	     21.225779	     11390.478
        534.00	     7583.9811	     462.90718	     11390.990
        535.00	     11045.375	     556.13365	     11391.295
        536.00	     17221.612	     40.276497	     11391.599
        537.00	     20551.068	     823.95672	     11392.121
        538.00	     28256.526	     61.369129	     11392.426
        539.00	     32194.665	     952.58811	     11392.941
        540.00	     41252.247	     78.298856	     11393.246
        541.00	     45384.380	     1002.4448	     11393.762
        542.00	     54231.060	     68.058908	     11394.066
        543.00	     58089.247	     911.71436	     11394.582
        544.00	     64411.945	     857.80495	     11394.886
        545.00	     72068.467	     65.108982	     11395.299
        546.00	     77650.851	     111.16703	     11395.813
        547.00	     80778.803	     743.36562	     11396.325
        548.00	     85401.088	     533.86454	     11396.629
        549.00	     89193.278	     385.48140	     11396.933
        550.00	     92381.062	     94.321909	     11397.347
        551.00	     93061.452	     124.50529	     11397.866
        552.00	     93486.777	     74.133112	     11398.171
        553.00	     93407.947	     214.06335	     11398.689
        554.00	     91907.068	     329.96024	     11398.994
        555.00	     88097.143	     52.105468	     11399.407
        556.00	     86110.404	     678.55266	     11399.919
        557.00	     80392.434	     75.578438	     11400.224
        558.00	     77897.893	     782.92878	     11400.739
        559.00	     71434.943	     81.677992	     11401.044
        560.00	     68665.564	     836.50599	     11401.563
        561.00	     63762.761	     802.26683	     11401.867
        562.00	     56898.585	     55.020155	     11402.280
        563.00	     54231.482	     837.83533	     11402.793
        564.00	     49594.216	     709.37767	     11403.098
        565.00	     44023.306	     75.464946	     11403.511
        566.00	     42474.209	     544.87683	     11404.023
        567.00	     40366.423	     317.66989	     11404.328
        568.00	     39032.162	     62.362991	     11404.741
        569.00	     39592.679	     62.356404	     11405.254
        570.00	     40747.702	     220.73469	     11405.766
        571.00	     44074.339	     68.716488	     11406.071
        572.00	     46631.018	     601.61163	     11406.587
        573.00	     50833.082	     665.73152	     11406.891
        574.00	     57456.922	     63.934803	     11407.304
        575.00	     61111.492	     778.80687	     11407.817
        576.00	     66791.566	     827.00456	     11408.121
        577.00	     74725.937	     102.84137	     11408.535
        578.00	     78876.534	     854.64288	     11409.047
        579.00	     87884.219	     123.59515	     11409.352
        580.00	     92810.953	     1011.3062	     11409.870
        581.00	     102624.86	     114.30970	     11410.175
        582.00	     107925.18	     1106.2709	     11410.691
        583.00	     118821.40	     103.28941	     11410.996
        584.00	     124153.37	     1128.4169	     11411.511
        585.00	     132544.06	     1079.2385	     11411.815
        586.00	     143640.95	     108.14511	     11412.229
        587.00	     149305.19	     1174.3849	     11412.741
        588.00	     160293.32	     124.80048	     11413.046
        589.00	     165984.87	     1166.6129	     11413.562
        590.00	     174279.84	     1075.2270	     11413.866
        591.00	     182776.48	     969.96345	     11414.171
        592.00	     193243.18	     110.76937	     11414.584
        593.00	     198355.23	     978.48283	     11415.103
        594.00	     205827.59	     925.52315	     11415.407
        595.00	     215405.53	     39.235233	     11415.821
        596.00	     222631.93	     108.63078	     11416.333
        597.00	     227604.30	     753.96548	     11416.846
        598.00	     235651.42	     69.952025	     11417.150
        599.00	     240162.38	     680.76127	     11417.666
        600.00	     247633.65	     87.733874	     11417.970
        601.00	     251568.76	     556.68964	     11418.489
        602.00	     257746.24	     511.34646	     11418.793
        603.00	     263883.06	     89.680600	     11419.207
        604.00	     267572.14	     438.89773	     11419.719
        605.00	     272907.98	     398.14693	     11420.024
        606.00	     278408.75	     57.084371	     11420.437
        607.00	     282023.75	     290.39887	     11420.950
        608.00	     286205.15	     245.44592	     11421.254
        609.00	     291595.85	     65.984425	     11421.667
        610.00	     295487.83	     246.19547	     11422.180
        611.00	     300045.49	     84.350535	     11422.485
        612.00	     303765.01	     231.65339	     11423.000
        613.00	     308141.70	     135.37605	     11423.305
        614.00	     312290.51	     71.308504	     11423.718
        615.00	     316117.36	     179.61767	     11424.231
        616.00	     320324.92	     135.13417	     11424.535
        617.00	     324704.97	     77.811918	     11424.948
        618.00	     328853.25	     132.87832	     11425.461
        619.00	     332987.47	     160.89890	     11425.765
        620.00	     337718.84	     42.365771	     11426.179
        621.00	     341823.93	     78.270376	     11426.691
        622.00	     345793.36	     103.49572	     11426.996
        623.00	     350387.40	     83.832420	     11427.409
        624.00	     354701.07	     85.943041	     11427.922
        625.00	     358722.09	     84.336027	     11428.434
        626.00	     363412.35	     128.55346	     11428.739
        627.00	     367829.84	     100.42619	     11429.043
        628.00	     371701.46	     55.000801	     11429.456
        629.00	     376843.38	     112.35745	     11429.975
        630.00	     381058.55	     91.674315	     11430.280
        631.00	     385314.21	     112.20873	     11430.693
        632.00	     390051.92	     123.60060	     11431.205
        633.00	     394999.21	     145.60513	     11431.510
        634.00	     399497.62	     88.890095	     11431.923
        635.00	     403355.38	     140.40031	     11432.436
        636.00	     408419.01	     146.82020	     11432.740
        637.00	     413303.70	     145.16277	     11433.045
        638.00	     417569.43	     80.657048	     11433.458
        639.00	     422442.98	     99.643313	     11433.977
        640.00	     426633.01	     113.11125	     11434.281
        641.00	     431177.90	     97.631765	     11434.694
        642.00	     436119.56	     201.99933	     11435.207
        643.00	     440241.21	     123.07017	     11435.512
        644.00	     444558.05	     121.73390	     11436.027
        645.00	     449526.29	     164.16927	     11436.540
        646.00	     454634.54	     274.37719	     11436.844
        647.00	     458503.71	     172.07357	     11437.258
        648.00	     463054.47	     231.72545	     11437.770
        649.00	     467542.46	     331.48443	     11438.075
        650.00	     472069.29	     272.69396	     11438.379
        651.00	     476043.14	     75.304861	     11438.792
        652.00	     481376.99	     301.75219	     11439.311
        653.00	     485442.77	     144.40081	     11439.616
        654.00	     490003.54	     425.14231	     11440.131
        655.00	     493584.38	     440.98831	     11440.436
        656.00	     496386.15	     225.82551	     11440.849
        657.00	     501609.04	     508.23386	     11441.362
        658.00	     505399.35	     507.40821	     11441.666
        659.00	     506978.75	     170.18810	     11441.971
        660.00	     511388.11	     666.79911	     11442.492
        661.00	     514081.57	     676.96254	     11442.797
        662.00	     514678.75	     222.06444	     11443.210
        663.00	     518964.17	     874.65294	     11443.726
        664.00	     519620.53	     163.99467	     11444.031
        665.00	     522620.47	     944.04893	     11444.546
        666.00	     524603.61	     1031.4624	     11444.851
        667.00	     523732.99	     187.88354	     11445.264
        668.00	     523797.55	     218.73605	     11445.777
        669.00	     527250.67	     1120.6828	     11446.289
        670.00	     527338.35	     1235.9855	     11446.594
        671.00	     526108.17	     1318.8010	     11446.898
        672.00	     522522.37	     254.24003	     11447.311
        673.00	     522181.81	     246.70718	     11447.830
        674.00	     524358.72	     1540.8342	     11448.343
        675.00	     521914.28	     1423.8943	     11448.647
        676.00	     516208.07	     301.96089	     11449.061
        677.00	     518150.43	     1509.4459	     11449.573
        678.00	     510988.20	     477.68928	     11449.878
        679.00	     512633.31	     1627.9204	     11450.393
        680.00	     508300.36	     1825.5015	     11450.698
        681.00	     505097.05	     1780.7637	     11451.002
        682.00	     497355.87	     284.27859	     11451.416
        683.00	     496784.41	     1775.8867	     11451.934
        684.00	     491646.92	     1727.6458	     11452.239
        685.00	     483790.07	     328.08906	     11452.652
        686.00	     482679.93	     2019.3730	     11453.165
        687.00	     477881.58	     1808.8476	     11453.469
        688.00	     468691.77	     373.08966	     11453.774
        689.00	     468328.35	     1774.9035	     11454.296
        690.00	     457650.52	     420.60960	     11454.602
        691.00	     457430.33	     2027.7511	     11455.116
        692.00	     450909.88	     1974.4153	     11455.420
        693.00	     443128.96	     397.17189	     11455.833
        694.00	     437520.06	     318.42193	     11456.346
        695.00	     436744.58	     2104.2265	     11456.859
        696.00	     425282.57	     370.14319	     11457.163
        697.00	     423737.26	     1797.3267	     11457.682
        698.00	     418104.84	     1905.7360	     11457.987
        699.00	     406532.91	     456.60658	     11458.400
        700.00	     405686.71	     1775.5198	     11458.912
        701.00	     398538.22	     1852.0538	     11459.217
        702.00	     386953.15	     455.12362	     11459.630
        703.00	     385731.03	     1805.4012	     11460.143
        704.00	     375632.89	     291.00180	     11460.448
        705.00	     372347.57	     1747.1839	     11460.963
        706.00	     365909.80	     1889.7771	     11461.267
        707.00	     355067.98	     348.15058	     11461.681
        708.00	     353371.98	     1955.2229	     11462.193
        709.00	     342711.01	     465.85614	     11462.498
        710.00	     338122.28	     289.68491	     11463.017
        711.00	     334472.40	     1841.1132	     11463.526
        712.00	     328204.17	     1834.5005	     11463.830
        713.00	     317525.16	     445.84088	     11464.244
        714.00	     315952.06	     1815.3324	     11464.756
        715.00	     309471.83	     1729.3943	     11465.061
        716.00	     299127.01	     403.70477	     11465.474
        717.00	     293000.33	     404.51805	     11465.987
        718.00	     290751.98	     1800.2260	     11466.499
        719.00	     280546.94	     468.43574	     11466.804
        720.00	     278265.97	     1301.3613	     11467.322
        721.00	     271965.12	     1456.2838	     11467.627
        722.00	     262305.74	     369.53754	     11468.040
        723.00	     260070.08	     1526.4980	     11468.556
        724.00	     254057.18	     1469.5032	     11468.861
        725.00	     245197.24	     401.27570	     11469.274
        726.00	     242807.54	     1588.8235	     11469.786
        727.00	     233295.55	     582.87295	     11470.091
        728.00	     231557.24	     1523.5384	     11470.607
        729.00	     225100.02	     1398.1748	     11470.911
        730.00	     216790.35	     426.88482	     11471.324
        731.00	     214880.70	     1343.9176	     11471.837
        732.00	     206660.45	     300.40295	     11472.142
        733.00	     205364.79	     1398.9124	     11472.657
        734.00	     199529.36	     1202.7731	     11472.962
        735.00	     192435.70	     288.66391	     11473.375
        736.00	     187069.85	     300.81877	     11473.888
        737.00	     185284.82	     1323.4146	     11474.400
        738.00	     177562.11	     280.55021	     11474.705
        739.00	     175678.17	     1072.7338	     11475.220
        740.00	     168793.86	     267.98360	     11475.525
        741.00	     164344.61	     312.86004	     11476.044
        742.00	     160412.94	     356.43505	     11476.556
        743.00	     158532.51	     1074.0499	     11477.069
        744.00	     155605.52	     890.98598	     11477.374
        745.00	     148787.10	     419.38927	     11477.786
        746.00	     147067.45	     874.66203	     11478.299
        747.00	     144086.28	     854.96323	     11478.604
        748.00	     137643.50	     232.26073	     11479.017
        749.00	     135922.69	     873.00703	     11479.530
        750.00	     132128.19	     816.62728	     11479.834
        751.00	     127058.83	     248.62739	     11480.247
        752.00	     125771.49	     723.26550	     11480.760
        753.00	     122665.00	     920.89199	     11481.064
        754.00	     118252.46	     329.64716	     11481.478
        755.00	     114627.63	     324.45259	     11481.990
        756.00	     113445.99	     728.03450	     11482.503
        757.00	     108642.61	     277.92913	     11482.808
        758.00	     108475.82	     826.39577	     11483.326
        759.00	     105123.38	     701.97620	     11483.631
        760.00	     102090.02	     298.80596	     11484.044
        761.00	     100743.05	     554.91503	     11484.557
        762.00	     97804.003	     692.19753	     11484.861
        763.00	     94854.869	     659.37378	     11485.165
        764.00	     91982.162	     307.68970	     11485.579
        765.00	     90511.495	     426.43458	     11486.098
        766.00	     87558.258	     256.77886	     11486.402
        767.00	     86144.452	     852.57942	     11486.917
        768.00	     84112.108	     489.63749	     11487.222
        769.00	     80082.529	     216.05761	     11487.635
        770.00	     79621.984	     606.30516	     11488.151
        771.00	     77760.411	     511.66874	     11488.455
        772.00	     74837.803	     329.11216	     11488.869
        773.00	     74339.119	     650.10992	     11489.381
        774.00	     71330.584	     280.04803	     11489.686
        775.00	     69302.866	     361.03562	     11490.205
        776.00	     68476.468	     491.89881	     11490.717
        777.00	     66057.914	     316.42420	     11491.025
        778.00	     64671.354	     300.25507	     11491.538
        779.00	     63844.660	     398.13442	     11492.050
        780.00	     62382.179	     401.84483	     11492.355
        781.00	     60054.188	     234.26670	     11492.768
        782.00	     59529.389	     321.18742	     11493.280
        783.00	     58092.994	     429.35421	     11493.585
        784.00	     55976.281	     237.56548	     11493.998
        785.00	     54723.867	     384.81791	     11494.511
        786.00	     53858.558	     369.45533	     11494.815
        787.00	     52070.505	     326.42000	     11495.119
        788.00	     50800.994	     392.42517	     11495.533
        789.00	     49821.034	     377.40608	     11496.052
        790.00	     48319.293	     236.20030	     11496.357
        791.00	     47590.686	     276.88565	     11496.875
        792.00	     47440.184	     333.22547	     11497.179
        793.00	     46144.073	     251.60896	     11497.593
        794.00	     45121.600	     254.24398	     11498.106
        795.00	     44477.386	     235.80414	     11498.618
        796.00	     42877.064	     233.24530	     11498.922
        797.00	     40664.298	     251.66946	     11499.336
        798.00	     38790.920	     171.87390	     11499.848
        799.00	     36477.841	     291.43736	     11500.153
        800.00	     35475.562	     150.63651	     11500.457
