Title=200220_em_MeCN_2,0uM_ST512
Comment=
Signature=ISS_Experiment_Ver_1_0
Timestamp=Thu Feb 20 15:22:47 2020
Product=Vinci2
SoftwareVersion=BETA.2.4
BuildNumber=234
RealTimeStart=6072.85223237

AcquisitionType=Photon Counting
AcquisitionFormat=L
AcquisitionSide=Right
Detector Gains=(0.0, 0.0)

Measurable=Intensity
MaxIterations=10

RightEmissionWavelengthBandwidth=8.0
ExcitationWavelengthBandwidth=8.0
Visualization=Y:Intensity,X:EmissionWavelength,PlotType:2D


EmissionWavelength=type:numeric,unit:nm,from:400.0,to:800.0,step:1.0
ExcitationWavelength=type:numeric,unit:nm,fixed:511.0

Space=EmissionWavelength
Columns=EmissionWavelength,Intensity,IntensityStdError,RealTime
[Data]
        400.00	     678.66621	     6.1931251	     6075.9101
        401.00	     686.62653	     3.0556420	     6076.4878
        402.00	     702.73151	     3.2824882	     6076.7924
        403.00	     708.57415	     5.9230374	     6077.2056
        404.00	     699.18532	     4.9620256	     6077.7183
        405.00	     712.61852	     5.3612045	     6078.0228
        406.00	     717.09696	     5.2885402	     6078.3427
        407.00	     730.17259	     3.5726400	     6078.6470
        408.00	     752.03074	     8.5671772	     6079.0604
        409.00	     750.53174	     4.7233371	     6079.5700
        410.00	     769.92028	     8.5938131	     6079.8748
        411.00	     780.35225	     5.7112092	     6080.3903
        412.00	     795.54120	     6.3715475	     6080.6947
        413.00	     812.92949	     6.4046332	     6080.9991
        414.00	     833.82386	     6.5504073	     6081.4124
        415.00	     853.62754	     4.9278916	     6081.9312
        416.00	     863.19452	     5.4754437	     6082.2358
        417.00	     886.33009	     5.1961174	     6082.5401
        418.00	     906.27901	     3.9811391	     6082.9534
        419.00	     921.05496	     5.7336412	     6083.4722
        420.00	     936.95115	     4.5005303	     6083.7767
        421.00	     949.95339	     7.7305684	     6084.0809
        422.00	     979.14743	     9.4901711	     6084.4941
        423.00	     996.78552	     6.1591586	     6084.7988
        424.00	     1013.2196	     5.2512827	     6085.3209
        425.00	     1036.4240	     7.2560523	     6085.8334
        426.00	     1056.2105	     7.2638797	     6086.1381
        427.00	     1083.8250	     7.8617071	     6086.6534
        428.00	     1088.0523	     7.0935317	     6086.9579
        429.00	     1106.8773	     5.2153853	     6087.3713
        430.00	     1140.1780	     5.2875293	     6087.8868
        431.00	     1159.9960	     7.5469864	     6088.1914
        432.00	     1187.1309	     5.7092663	     6088.6047
        433.00	     1188.0161	     9.0645652	     6089.1171
        434.00	     1191.4010	     8.7531972	     6089.4219
        435.00	     1217.9113	     5.1539966	     6089.7262
        436.00	     1230.4711	     8.9319481	     6090.1395
        437.00	     1275.6706	     8.9552860	     6090.6584
        438.00	     1293.4905	     5.4596539	     6090.9627
        439.00	     1303.9343	     7.2645694	     6091.3760
        440.00	     1292.8939	     8.9949657	     6091.8887
        441.00	     1322.5921	     6.9599846	     6092.1934
        442.00	     1342.1477	     7.7341457	     6092.7120
        443.00	     1376.9557	     7.2238917	     6093.0164
        444.00	     1394.0929	     6.7051481	     6093.4296
        445.00	     1400.4977	     5.8670947	     6093.9424
        446.00	     1424.9406	     8.8848597	     6094.2469
        447.00	     1427.5304	     10.604432	     6094.5511
        448.00	     1466.0793	     8.4859084	     6094.9645
        449.00	     1499.0539	     7.0402982	     6095.4831
        450.00	     1499.5004	     7.8423814	     6095.7877
        451.00	     1516.5532	     11.475143	     6096.0923
        452.00	     1548.3495	     9.4578782	     6096.5055
        453.00	     1570.8637	     9.0300140	     6097.0241
        454.00	     1592.0070	     7.6606091	     6097.3287
        455.00	     1614.5662	     7.9543310	     6097.6330
        456.00	     1670.5619	     11.542578	     6098.0464
        457.00	     1676.7821	     8.7497461	     6098.5653
        458.00	     1713.5474	     7.9962805	     6098.8695
        459.00	     1710.7201	     8.9562317	     6099.1742
        460.00	     1766.3696	     8.6840161	     6099.5875
        461.00	     1797.3133	     6.0912382	     6100.1063
        462.00	     1829.9480	     12.565312	     6100.6219
        463.00	     1869.4368	     9.3859069	     6100.9265
        464.00	     1944.2512	     15.095836	     6101.3398
        465.00	     1989.0688	     10.390850	     6101.8522
        466.00	     2053.7042	     18.171532	     6102.1569
        467.00	     2162.3891	     7.7990167	     6102.5699
        468.00	     2191.4825	     21.175219	     6103.0825
        469.00	     2293.2242	     18.227779	     6103.3870
        470.00	     2444.4196	     12.864922	     6103.8003
        471.00	     2555.1802	     25.751309	     6104.3131
        472.00	     2724.4610	     25.166404	     6104.6174
        473.00	     2982.0893	     16.641022	     6105.0307
        474.00	     3118.8497	     32.915686	     6105.5434
        475.00	     3451.9515	     8.3634415	     6105.8480
        476.00	     3627.9121	     42.492916	     6106.3664
        477.00	     3979.6511	     43.225344	     6106.6709
        478.00	     4472.1407	     17.405827	     6107.0843
        479.00	     4799.4936	     77.827706	     6107.6002
        480.00	     5300.6411	     74.060015	     6107.9047
        481.00	     6150.9863	     18.665367	     6108.3177
        482.00	     6608.3413	     111.17015	     6108.8304
        483.00	     7434.5704	     123.97374	     6109.1349
        484.00	     8374.0558	     143.75719	     6109.4394
        485.00	     9891.3698	     21.723387	     6109.8526
        486.00	     10742.411	     214.49791	     6110.3711
        487.00	     12309.641	     254.49525	     6110.6760
        488.00	     14914.351	     24.713912	     6111.0890
        489.00	     16443.499	     342.13775	     6111.6017
        490.00	     19084.186	     421.64060	     6111.9061
        491.00	     23365.679	     32.711114	     6112.3193
        492.00	     25831.218	     591.22853	     6112.8320
        493.00	     31937.588	     20.939294	     6113.1367
        494.00	     35496.337	     859.45042	     6113.6522
        495.00	     43767.734	     67.521175	     6113.9571
        496.00	     48397.367	     1102.9325	     6114.4724
        497.00	     57066.504	     1258.7867	     6114.7771
        498.00	     70132.563	     54.289629	     6115.1901
        499.00	     78125.980	     1610.9388	     6115.7026
        500.00	     91537.355	     1654.8451	     6116.0073
        501.00	     105660.38	     1663.5789	     6116.3115
        502.00	     123259.15	     50.931547	     6116.7248
        503.00	     132860.91	     1536.2704	     6117.2436
        504.00	     145011.47	     1221.6576	     6117.5483
        505.00	     155405.73	     964.09258	     6117.8524
        506.00	     165097.91	     42.312636	     6118.2658
        507.00	     169635.20	     598.66892	     6118.7846
        508.00	     175676.68	     45.147939	     6119.0894
        509.00	     178008.35	     381.16689	     6119.6080
        510.00	     181502.66	     32.613665	     6119.9128
        511.00	     182248.54	     208.25661	     6120.4281
        512.00	     183470.47	     155.55565	     6120.7326
        513.00	     183481.97	     118.22401	     6121.0373
        514.00	     183334.12	     33.717702	     6121.4504
        515.00	     182842.62	     65.217155	     6121.9694
        516.00	     182672.22	     81.773762	     6122.2737
        517.00	     182252.39	     44.499779	     6122.6870
        518.00	     181873.86	     70.449660	     6123.1997
        519.00	     181528.92	     41.798247	     6123.5039
        520.00	     181158.01	     48.829626	     6123.9173
        521.00	     180887.21	     57.075431	     6124.4297
        522.00	     180951.63	     63.306110	     6124.7342
        523.00	     181318.74	     51.109154	     6125.1476
        524.00	     181319.32	     70.497639	     6125.6602
        525.00	     181274.38	     63.582485	     6125.9650
        526.00	     181418.94	     55.725070	     6126.3777
        527.00	     181856.09	     33.162381	     6126.6823
        528.00	     182625.77	     59.226018	     6127.1981
        529.00	     182859.63	     28.901429	     6127.5024
        530.00	     183507.62	     48.113231	     6127.8069
        531.00	     183967.05	     38.416486	     6128.2200
        532.00	     184644.44	     23.707791	     6128.7391
        533.00	     185360.25	     36.565829	     6129.0436
        534.00	     185984.89	     53.825417	     6129.4567
        535.00	     186777.88	     28.300626	     6129.9693
        536.00	     187675.54	     54.554307	     6130.2737
        537.00	     188626.56	     61.419855	     6130.6871
        538.00	     189465.55	     38.658840	     6131.2000
        539.00	     190387.85	     31.936289	     6131.7124
        540.00	     191324.32	     49.711215	     6132.0168
        541.00	     192380.27	     34.653818	     6132.4302
        542.00	     193349.61	     31.738340	     6132.9459
        543.00	     194293.25	     38.023745	     6133.2503
        544.00	     195367.48	     28.018460	     6133.6634
        545.00	     196317.22	     68.710945	     6134.1759
        546.00	     197495.09	     39.144125	     6134.4803
        547.00	     198375.10	     36.816492	     6134.8937
        548.00	     199608.28	     63.559406	     6135.4066
        549.00	     200948.27	     65.181310	     6135.9192
        550.00	     202131.90	     44.414509	     6136.2236
        551.00	     202955.78	     47.528285	     6136.6365
        552.00	     204129.62	     45.496978	     6137.1495
        553.00	     205599.86	     75.457706	     6137.6622
        554.00	     206615.64	     64.095638	     6137.9668
        555.00	     208019.08	     55.479786	     6138.4821
        556.00	     209229.31	     53.421618	     6138.7869
        557.00	     210569.87	     57.158863	     6139.3025
        558.00	     211956.75	     50.164721	     6139.6071
        559.00	     213725.38	     55.895113	     6140.1227
        560.00	     214849.99	     47.607476	     6140.4269
        561.00	     216190.09	     61.247405	     6140.8402
        562.00	     217746.30	     64.615161	     6141.3561
        563.00	     219160.60	     26.081186	     6141.6607
        564.00	     220767.88	     57.959971	     6142.0738
        565.00	     222242.41	     50.061630	     6142.5863
        566.00	     224099.35	     86.690748	     6142.8907
        567.00	     225393.64	     46.268391	     6143.3040
        568.00	     227141.21	     71.332841	     6143.8196
        569.00	     228963.98	     57.627549	     6144.1243
        570.00	     230262.36	     57.403014	     6144.5373
        571.00	     231987.98	     77.306633	     6145.0502
        572.00	     233638.44	     77.473612	     6145.3546
        573.00	     235320.31	     52.878659	     6145.7678
        574.00	     236818.06	     36.089699	     6146.2805
        575.00	     238916.15	     62.002557	     6146.5847
        576.00	     240096.82	     68.611158	     6146.9981
        577.00	     241853.40	     76.884500	     6147.5106
        578.00	     243367.95	     49.427084	     6147.8156
        579.00	     245270.84	     45.954715	     6148.3342
        580.00	     247242.95	     89.472646	     6148.8464
        581.00	     248865.78	     89.304721	     6149.1512
        582.00	     250078.16	     105.50127	     6149.4555
        583.00	     251490.84	     71.687607	     6149.8688
        584.00	     253203.57	     64.157309	     6150.3875
        585.00	     254619.75	     108.31608	     6150.6924
        586.00	     256228.71	     84.987564	     6150.9967
        587.00	     257126.26	     74.111005	     6151.4099
        588.00	     258007.58	     72.741392	     6151.9289
        589.00	     259729.72	     153.74915	     6152.4415
        590.00	     260824.22	     168.76701	     6152.7456
        591.00	     261641.11	     163.41395	     6153.0504
        592.00	     262686.88	     57.029963	     6153.4635
        593.00	     263478.05	     215.70725	     6153.9822
        594.00	     264308.86	     168.67760	     6154.2866
        595.00	     264546.42	     65.785319	     6154.5915
        596.00	     265936.03	     234.07557	     6155.1132
        597.00	     266371.60	     70.398828	     6155.4179
        598.00	     267028.05	     271.96103	     6155.9336
        599.00	     267586.29	     298.46838	     6156.2377
        600.00	     267041.26	     111.82436	     6156.6511
        601.00	     266980.93	     87.446259	     6157.1638
        602.00	     267994.38	     364.96131	     6157.6763
        603.00	     267508.81	     396.55383	     6157.9811
        604.00	     265707.49	     47.108153	     6158.3941
        605.00	     266334.53	     524.75287	     6158.9065
        606.00	     265203.73	     527.51715	     6159.2113
        607.00	     263765.46	     600.82109	     6159.5154
        608.00	     260416.71	     96.832144	     6159.9289
        609.00	     260325.14	     690.44536	     6160.4475
        610.00	     258121.88	     749.72904	     6160.7522
        611.00	     253681.07	     113.45034	     6161.1654
        612.00	     252907.36	     807.08716	     6161.6782
        613.00	     249907.79	     861.55094	     6161.9824
        614.00	     244074.50	     179.92179	     6162.3961
        615.00	     242967.60	     937.25796	     6162.9086
        616.00	     239410.31	     900.84025	     6163.2129
        617.00	     235313.28	     946.20343	     6163.5173
        618.00	     229841.49	     123.13578	     6163.9304
        619.00	     228219.81	     960.85236	     6164.4494
        620.00	     222395.78	     233.18494	     6164.7541
        621.00	     220530.67	     941.76924	     6165.2725
        622.00	     214423.59	     143.65787	     6165.5773
        623.00	     210874.23	     161.82026	     6166.0961
        624.00	     209097.60	     950.81144	     6166.6084
        625.00	     205076.71	     959.22668	     6166.9130
        626.00	     198994.43	     191.05310	     6167.3263
        627.00	     194940.22	     177.11577	     6167.8419
        628.00	     193469.68	     1029.9953	     6168.3546
        629.00	     189911.69	     961.61564	     6168.6589
        630.00	     185626.07	     884.54254	     6168.9634
        631.00	     180103.75	     116.23079	     6169.3768
        632.00	     176167.71	     186.76293	     6169.8958
        633.00	     174493.98	     939.19702	     6170.4085
        634.00	     170814.05	     812.83933	     6170.7127
        635.00	     166978.77	     795.02476	     6171.0172
        636.00	     160989.70	     87.248319	     6171.4305
        637.00	     159376.02	     863.12132	     6171.9493
        638.00	     155545.54	     776.44291	     6172.2538
        639.00	     149556.42	     165.90629	     6172.6667
        640.00	     148006.70	     867.46977	     6173.1796
        641.00	     144238.84	     867.94371	     6173.4839
        642.00	     138294.81	     176.61095	     6173.8972
        643.00	     136877.81	     803.49333	     6174.4128
        644.00	     130770.20	     174.06510	     6174.7177
        645.00	     129278.81	     876.46874	     6175.2331
        646.00	     123551.32	     175.07010	     6175.5379
        647.00	     121795.47	     852.18898	     6176.0535
        648.00	     116192.76	     150.76364	     6176.3584
        649.00	     114640.93	     753.24300	     6176.8734
        650.00	     109557.07	     169.98759	     6177.1785
        651.00	     107716.36	     722.59598	     6177.6939
        652.00	     102836.82	     126.70420	     6177.9987
        653.00	     101456.02	     723.51415	     6178.5139
        654.00	     98167.907	     718.27002	     6178.8183
        655.00	     93327.662	     146.73280	     6179.2316
        656.00	     92050.340	     677.24395	     6179.7442
        657.00	     87299.391	     175.24886	     6180.0492
        658.00	     85962.805	     579.77014	     6180.5647
        659.00	     81864.174	     115.60549	     6180.8692
        660.00	     80467.344	     618.67503	     6181.3847
        661.00	     77961.445	     678.72931	     6181.6894
        662.00	     73875.465	     98.691733	     6182.1025
        663.00	     72649.923	     582.32600	     6182.6150
        664.00	     70117.919	     432.30664	     6182.9194
        665.00	     66482.944	     144.48423	     6183.3328
        666.00	     64636.668	     72.744563	     6183.8457
        667.00	     62407.143	     129.45319	     6184.3583
        668.00	     61432.907	     528.74299	     6184.8705
        669.00	     59471.600	     365.86740	     6185.1750
        670.00	     57582.749	     355.50536	     6185.4795
        671.00	     54645.570	     93.561966	     6185.8929
        672.00	     52887.622	     111.74380	     6186.4119
        673.00	     52208.339	     458.96256	     6186.9241
        674.00	     49804.566	     115.60274	     6187.2290
        675.00	     49343.372	     313.32451	     6187.7477
        676.00	     47074.984	     115.45430	     6188.0525
        677.00	     46452.966	     381.40472	     6188.5681
        678.00	     44933.737	     339.46919	     6188.8722
        679.00	     42963.143	     115.02043	     6189.2856
        680.00	     42438.013	     315.50215	     6189.7981
        681.00	     41331.999	     251.65765	     6190.1027
        682.00	     39321.654	     142.29640	     6190.5159
        683.00	     39015.409	     263.96198	     6191.0283
        684.00	     37237.789	     126.84616	     6191.3332
        685.00	     36749.881	     316.03202	     6191.8489
        686.00	     35211.325	     113.18644	     6192.1534
        687.00	     34220.567	     92.209610	     6192.6722
        688.00	     33999.442	     169.55693	     6193.1844
        689.00	     33204.296	     218.34425	     6193.4890
        690.00	     31779.988	     77.560575	     6193.9023
        691.00	     31420.662	     197.98456	     6194.4183
        692.00	     30617.128	     202.94316	     6194.7225
        693.00	     29514.431	     178.13132	     6195.1355
        694.00	     29050.905	     257.64414	     6195.6485
        695.00	     27935.385	     89.802436	     6195.9531
        696.00	     27449.470	     83.510683	     6196.4717
        697.00	     27023.017	     200.82561	     6196.9810
        698.00	     26398.358	     264.47553	     6197.2856
        699.00	     25369.717	     100.58974	     6197.6989
        700.00	     25175.938	     212.15442	     6198.2116
        701.00	     24637.416	     243.80458	     6198.5160
        702.00	     23356.416	     118.45014	     6198.9291
        703.00	     23442.289	     177.01237	     6199.4418
        704.00	     22921.882	     150.20764	     6199.7462
        705.00	     22153.817	     121.66756	     6200.1594
        706.00	     21813.543	     123.38125	     6200.6722
        707.00	     21198.968	     180.62465	     6200.9765
        708.00	     20470.871	     107.07861	     6201.3899
        709.00	     20291.718	     122.26411	     6201.9024
        710.00	     19925.105	     86.717363	     6202.2075
        711.00	     19071.039	     115.57644	     6202.7229
        712.00	     19249.752	     174.14542	     6203.2351
        713.00	     18388.301	     155.33579	     6203.5397
        714.00	     17821.672	     87.991316	     6203.8446
        715.00	     17557.309	     131.90507	     6204.3664
        716.00	     17264.332	     139.48989	     6204.6707
        717.00	     16722.290	     100.01339	     6205.0838
        718.00	     16158.079	     77.464656	     6205.5968
        719.00	     16123.158	     115.02848	     6206.1092
        720.00	     15719.412	     176.64370	     6206.4139
        721.00	     15290.882	     100.76189	     6206.8269
        722.00	     15106.652	     132.73413	     6207.3393
        723.00	     14503.906	     200.72357	     6207.6439
        724.00	     14254.776	     81.290878	     6208.0572
        725.00	     13865.211	     112.42132	     6208.5731
        726.00	     13579.715	     58.224690	     6209.0858
        727.00	     13571.126	     136.47697	     6209.5980
        728.00	     13225.895	     138.35189	     6209.9028
        729.00	     12673.462	     67.876318	     6210.3159
        730.00	     12666.776	     71.241768	     6210.8283
        731.00	     12179.582	     58.000160	     6211.1328
        732.00	     11802.371	     86.700933	     6211.5460
        733.00	     11666.795	     182.66900	     6212.0587
        734.00	     11418.764	     120.47762	     6212.3637
        735.00	     11398.551	     125.96799	     6212.8789
        736.00	     10942.066	     54.633922	     6213.1837
        737.00	     10943.512	     128.48718	     6213.6994
        738.00	     10560.744	     127.77325	     6214.0035
        739.00	     10306.391	     68.096210	     6214.3085
        740.00	     10230.567	     94.008780	     6214.8304
        741.00	     10137.355	     126.67814	     6215.3428
        742.00	     9912.6785	     92.506877	     6215.6472
        743.00	     9702.2003	     66.959604	     6215.9518
        744.00	     9227.8247	     63.674705	     6216.3649
        745.00	     9208.4828	     74.703670	     6216.8837
        746.00	     9080.7280	     93.679487	     6217.1885
        747.00	     8927.5013	     73.475117	     6217.4927
        748.00	     8720.7787	     62.421218	     6217.9059
        749.00	     8652.2301	     79.282247	     6218.4249
        750.00	     8417.9781	     85.840108	     6218.7294
        751.00	     8406.2490	     102.34421	     6219.2479
        752.00	     8258.5530	     124.88578	     6219.5528
        753.00	     7890.7523	     76.016585	     6219.9658
        754.00	     7905.4470	     96.532051	     6220.4783
        755.00	     7707.1506	     76.925673	     6220.7827
        756.00	     7601.3441	     100.98094	     6221.1959
        757.00	     7545.2897	     84.793244	     6221.7087
        758.00	     7389.9298	     95.740794	     6222.0136
        759.00	     7540.5048	     138.56643	     6222.5291
        760.00	     7345.0780	     102.68818	     6222.8336
        761.00	     7120.6779	     77.750141	     6223.2464
        762.00	     7216.4980	     103.92515	     6223.7591
        763.00	     6954.4339	     98.147353	     6224.0636
        764.00	     6870.6107	     101.65009	     6224.3683
        765.00	     6756.5417	     81.555182	     6224.7814
        766.00	     6780.5895	     54.055159	     6225.3001
        767.00	     6559.8090	     69.810703	     6225.6047
        768.00	     6643.8006	     124.30005	     6225.9091
        769.00	     6345.3044	     81.847967	     6226.3223
        770.00	     6386.8344	     148.52670	     6226.8411
        771.00	     6195.9181	     101.41464	     6227.1455
        772.00	     6357.3725	     68.634628	     6227.4502
        773.00	     6196.8962	     119.06693	     6227.8634
        774.00	     6357.4779	     94.097054	     6228.3821
        775.00	     6020.2950	     113.98353	     6228.6871
        776.00	     6078.6191	     106.08856	     6229.2022
        777.00	     6038.0853	     133.91247	     6229.5069
        778.00	     5894.7332	     95.995508	     6229.9202
        779.00	     5976.5183	     149.18999	     6230.4327
        780.00	     5705.2821	     89.101895	     6230.7375
        781.00	     5745.6366	     99.998647	     6231.2560
        782.00	     5684.5728	     106.29538	     6231.5609
        783.00	     5643.5113	     72.604381	     6232.0762
        784.00	     5601.1662	     81.386721	     6232.3808
        785.00	     5586.3592	     130.17041	     6232.6851
        786.00	     5394.7045	     134.81798	     6233.0985
        787.00	     5466.2407	     92.402424	     6233.6175
        788.00	     5210.2212	     96.824598	     6233.9217
        789.00	     5408.0269	     85.576148	     6234.2263
        790.00	     5319.9614	     112.33076	     6234.6394
        791.00	     5324.8046	     87.113809	     6235.1584
        792.00	     5120.3320	     106.47095	     6235.4626
        793.00	     4979.9262	     48.586095	     6235.7827
        794.00	     5111.2000	     108.49270	     6236.0878
        795.00	     5054.8080	     83.891912	     6236.6000
        796.00	     4985.3774	     68.301472	     6236.9043
        797.00	     4695.3504	     57.995051	     6237.4199
        798.00	     4381.1510	     66.947794	     6237.7245
        799.00	     4393.0812	     83.665780	     6238.1378
        800.00	     4244.3359	     92.137780	     6238.6504
