Title=200220_em_EtOH_2,0uM_NRA1
Comment=
Signature=ISS_Experiment_Ver_1_0
Timestamp=Thu Feb 20 16:27:43 2020
Product=Vinci2
SoftwareVersion=BETA.2.4
BuildNumber=234
RealTimeStart=7283.36054543

AcquisitionType=Photon Counting
AcquisitionFormat=L
AcquisitionSide=Right
Detector Gains=(0.0, 0.0)

Measurable=Intensity
MaxIterations=10

RightEmissionWavelengthBandwidth=8.0
ExcitationWavelengthBandwidth=8.0
Visualization=Y:Intensity,X:EmissionWavelength,PlotType:2D


EmissionWavelength=type:numeric,unit:nm,from:400.0,to:800.0,step:1.0
ExcitationWavelength=type:numeric,unit:nm,fixed:565.0

Space=EmissionWavelength
Columns=EmissionWavelength,Intensity,IntensityStdError,RealTime
[Data]
        400.00	     109.48014	     1.8430632	     7286.2576
        401.00	     110.05236	     2.8261956	     7286.8262
        402.00	     103.05689	     2.1017624	     7287.1306
        403.00	     110.59187	     2.0670881	     7287.5438
        404.00	     100.49976	     1.8382428	     7288.0565
        405.00	     107.44894	     3.1280678	     7288.3610
        406.00	     103.16977	     1.9775355	     7288.7742
        407.00	     106.56107	     1.3344872	     7289.2866
        408.00	     103.70492	     3.0173530	     7289.5913
        409.00	     101.03312	     2.6078866	     7290.0045
        410.00	     103.30105	     1.5520251	     7290.5172
        411.00	     105.13022	     2.2551827	     7290.8216
        412.00	     101.44942	     1.1185474	     7291.2346
        413.00	     103.52438	     2.2429370	     7291.5393
        414.00	     104.81799	     1.9466040	     7292.0550
        415.00	     100.10587	     3.4297459	     7292.5676
        416.00	     98.734671	     2.5680203	     7292.8722
        417.00	     99.953821	     2.1886605	     7293.2852
        418.00	     102.28687	     1.9176158	     7293.7981
        419.00	     99.565484	     1.6369641	     7294.3138
        420.00	     95.871623	     1.2793952	     7294.6183
        421.00	     99.176888	     1.3525622	     7295.1368
        422.00	     106.51110	     1.4251261	     7295.4416
        423.00	     100.69378	     2.3199344	     7295.8547
        424.00	     100.73698	     1.9253700	     7296.3672
        425.00	     98.741192	     3.1053449	     7296.6720
        426.00	     99.472913	     2.3812873	     7297.0848
        427.00	     99.861481	     2.4403467	     7297.3895
        428.00	     101.79448	     1.5479355	     7297.9051
        429.00	     99.914097	     2.2828405	     7298.2101
        430.00	     97.885659	     2.2165289	     7298.7254
        431.00	     96.958616	     1.7408695	     7299.0302
        432.00	     101.75948	     1.9871563	     7299.4431
        433.00	     99.808607	     2.7462805	     7299.9556
        434.00	     101.29070	     2.6082306	     7300.2601
        435.00	     99.275360	     1.5894230	     7300.5646
        436.00	     96.963290	     2.5707094	     7300.9780
        437.00	     100.31021	     3.2667840	     7301.4967
        438.00	     99.245351	     2.1131416	     7301.8016
        439.00	     97.630705	     2.6919814	     7302.3201
        440.00	     101.80228	     2.3394350	     7302.8294
        441.00	     100.87175	     2.9972419	     7303.1343
        442.00	     103.02184	     2.9329348	     7303.5473
        443.00	     102.06505	     4.4877528	     7304.0629
        444.00	     97.104436	     1.6476146	     7304.3676
        445.00	     102.30161	     3.0764816	     7304.7807
        446.00	     106.03006	     2.8832563	     7305.2932
        447.00	     102.11273	     1.6777923	     7305.5981
        448.00	     99.482520	     3.3317896	     7305.9024
        449.00	     106.43841	     2.4256136	     7306.3155
        450.00	     108.96876	     2.9497519	     7306.8341
        451.00	     101.59703	     2.0083210	     7307.1388
        452.00	     106.70594	     3.0610251	     7307.5520
        453.00	     110.32925	     1.5428035	     7308.0647
        454.00	     105.55898	     2.4660081	     7308.3691
        455.00	     109.67090	     3.0504277	     7308.6736
        456.00	     109.79864	     3.0832420	     7309.1956
        457.00	     112.01436	     2.4771137	     7309.5003
        458.00	     112.64807	     2.4911277	     7309.9132
        459.00	     112.24044	     2.8136169	     7310.4257
        460.00	     110.43959	     3.0627182	     7310.7306
        461.00	     111.98164	     1.7258024	     7311.2462
        462.00	     116.03603	     3.0205735	     7311.5508
        463.00	     118.18930	     3.4142940	     7312.0664
        464.00	     113.28054	     2.7795059	     7312.3707
        465.00	     112.33089	     2.6209589	     7312.6750
        466.00	     120.09388	     3.4657356	     7313.0884
        467.00	     119.08042	     3.4415068	     7313.6073
        468.00	     114.87666	     2.8383608	     7313.9122
        469.00	     113.08845	     3.1180858	     7314.4304
        470.00	     118.13898	     3.4241597	     7314.7353
        471.00	     120.67476	     3.8014123	     7315.2510
        472.00	     121.38435	     2.3441335	     7315.7634
        473.00	     118.55584	     2.6590457	     7316.0684
        474.00	     125.08725	     1.9726533	     7316.5835
        475.00	     118.09596	     2.3821092	     7316.8881
        476.00	     121.29815	     3.7954425	     7317.3013
        477.00	     121.05679	     3.7605390	     7317.8140
        478.00	     126.28094	     2.8116436	     7318.1186
        479.00	     130.80387	     2.7462553	     7318.6340
        480.00	     125.59905	     3.8536032	     7318.9387
        481.00	     124.85716	     3.7077161	     7319.3519
        482.00	     129.26686	     3.9639310	     7319.8645
        483.00	     129.75617	     2.6282251	     7320.1694
        484.00	     136.41965	     3.0326426	     7320.6849
        485.00	     129.30473	     3.7789043	     7320.9894
        486.00	     125.86211	     2.8163544	     7321.4024
        487.00	     136.78611	     3.4317555	     7321.9150
        488.00	     134.71736	     3.1582449	     7322.2200
        489.00	     144.88696	     2.4220474	     7322.7350
        490.00	     135.40560	     3.2077400	     7323.0398
        491.00	     136.43542	     1.6723927	     7323.4529
        492.00	     138.13129	     3.2232222	     7323.9656
        493.00	     141.26589	     3.2961749	     7324.2701
        494.00	     143.12560	     1.9206802	     7324.6833
        495.00	     143.70322	     2.3344993	     7325.1962
        496.00	     142.14358	     4.1497648	     7325.7086
        497.00	     147.77503	     4.7164950	     7326.0134
        498.00	     145.83963	     2.1358498	     7326.5285
        499.00	     152.42035	     4.1972706	     7326.8331
        500.00	     154.31823	     4.5760423	     7327.1375
        501.00	     163.69076	     4.8104227	     7327.5507
        502.00	     170.46866	     3.3188038	     7328.0699
        503.00	     178.31398	     3.8848106	     7328.3745
        504.00	     179.24790	     1.9767621	     7328.8931
        505.00	     177.80756	     4.3904283	     7329.1980
        506.00	     188.72297	     4.3194730	     7329.7131
        507.00	     199.86321	     2.7076880	     7330.0178
        508.00	     206.72023	     4.1820568	     7330.4308
        509.00	     205.35029	     4.7797584	     7330.9434
        510.00	     212.32324	     6.2293757	     7331.2479
        511.00	     216.76413	     4.8514622	     7331.5523
        512.00	     219.65157	     3.7308883	     7331.9656
        513.00	     218.27532	     3.9930660	     7332.4844
        514.00	     229.41127	     4.1657664	     7332.7896
        515.00	     233.51537	     3.5933148	     7333.3045
        516.00	     247.06856	     3.7728600	     7333.6096
        517.00	     239.11424	     4.6083809	     7334.1251
        518.00	     242.43683	     4.8984699	     7334.4293
        519.00	     262.87393	     4.9745258	     7334.8427
        520.00	     270.82886	     7.1362523	     7335.3554
        521.00	     282.79409	     6.2950170	     7335.6600
        522.00	     300.04351	     3.1434255	     7335.9641
        523.00	     336.63669	     4.2999479	     7336.3777
        524.00	     338.57988	     6.0645914	     7336.8961
        525.00	     375.35386	     6.0631342	     7337.2007
        526.00	     395.83779	     8.8503262	     7337.7195
        527.00	     445.44919	     8.7489854	     7338.0241
        528.00	     479.27945	     5.0893586	     7338.4373
        529.00	     509.13205	     8.4559830	     7338.9532
        530.00	     548.79979	     9.9018117	     7339.2573
        531.00	     611.59261	     5.9640412	     7339.6707
        532.00	     654.00710	     10.706325	     7340.1835
        533.00	     724.87047	     13.888108	     7340.4878
        534.00	     801.45860	     7.0012547	     7340.9011
        535.00	     869.05275	     12.165448	     7341.4138
        536.00	     934.53419	     11.866780	     7341.7183
        537.00	     1006.0192	     12.953384	     7342.0225
        538.00	     1101.8910	     10.746418	     7342.4359
        539.00	     1172.3378	     14.571063	     7342.9547
        540.00	     1249.7460	     17.438900	     7343.2590
        541.00	     1366.8754	     10.399462	     7343.6723
        542.00	     1435.7617	     17.820084	     7344.1848
        543.00	     1529.9103	     19.785516	     7344.4896
        544.00	     1668.6541	     14.495841	     7344.9026
        545.00	     1737.0313	     22.844442	     7345.4151
        546.00	     1901.2514	     24.315153	     7345.7198
        547.00	     2092.1131	     30.042829	     7346.0243
        548.00	     2437.3143	     16.457701	     7346.4374
        549.00	     2614.2796	     47.344318	     7346.9563
        550.00	     2981.7075	     56.099736	     7347.2606
        551.00	     3277.4916	     63.761661	     7347.5809
        552.00	     3705.5884	     71.271700	     7347.8855
        553.00	     4275.3383	     16.804935	     7348.2985
        554.00	     4588.3762	     65.628232	     7348.8078
        555.00	     5116.7394	     64.541691	     7349.1125
        556.00	     5854.7496	     28.582058	     7349.5257
        557.00	     6194.6022	     90.801411	     7350.0383
        558.00	     6863.9376	     81.906597	     7350.3426
        559.00	     7490.3755	     85.380641	     7350.6470
        560.00	     8263.3306	     37.558024	     7351.0605
        561.00	     8756.3419	     98.386390	     7351.5794
        562.00	     9407.6171	     114.99876	     7351.8837
        563.00	     10046.208	     82.762371	     7352.1881
        564.00	     10858.997	     36.245653	     7352.6015
        565.00	     11199.419	     78.951473	     7353.1204
        566.00	     11808.431	     71.591244	     7353.4249
        567.00	     12417.104	     99.810926	     7353.7293
        568.00	     13183.528	     32.780418	     7354.1425
        569.00	     13704.879	     94.058214	     7354.6611
        570.00	     14435.055	     89.466989	     7354.9660
        571.00	     15281.406	     128.14616	     7355.2702
        572.00	     16534.564	     34.627891	     7355.6835
        573.00	     17296.774	     181.03135	     7356.2024
        574.00	     18484.770	     185.73499	     7356.5067
        575.00	     19971.541	     184.67114	     7356.8113
        576.00	     22190.033	     42.070751	     7357.2245
        577.00	     23427.625	     300.52484	     7357.7432
        578.00	     25620.616	     337.51311	     7358.0479
        579.00	     28127.777	     362.82918	     7358.3523
        580.00	     30240.993	     402.48345	     7358.7653
        581.00	     35135.314	     73.048308	     7359.0700
        582.00	     37341.665	     509.53252	     7359.5919
        583.00	     42688.229	     47.801611	     7359.8966
        584.00	     45613.342	     666.14171	     7360.4122
        585.00	     50027.984	     638.80012	     7360.7163
        586.00	     56904.620	     90.032046	     7361.1298
        587.00	     60521.456	     822.10626	     7361.6425
        588.00	     66430.144	     812.66180	     7361.9467
        589.00	     74512.818	     68.959690	     7362.3600
        590.00	     78785.555	     989.81947	     7362.8725
        591.00	     85723.163	     953.40995	     7363.1773
        592.00	     93529.980	     961.76657	     7363.4819
        593.00	     103273.74	     112.74558	     7363.8948
        594.00	     108245.56	     1144.0454	     7364.4138
        595.00	     116397.80	     1182.2583	     7364.7180
        596.00	     125066.16	     1135.2730	     7365.0226
        597.00	     136206.03	     119.73695	     7365.4359
        598.00	     145088.80	     125.61140	     7365.9549
        599.00	     150929.83	     1207.2954	     7366.4673
        600.00	     159998.19	     1168.9783	     7366.7717
        601.00	     171795.78	     125.57612	     7367.1851
        602.00	     177999.82	     1158.6794	     7367.6976
        603.00	     189925.73	     127.41889	     7368.0024
        604.00	     195688.05	     1149.3077	     7368.5177
        605.00	     204875.43	     1089.7158	     7368.8221
        606.00	     216316.94	     113.62102	     7369.2356
        607.00	     222123.53	     959.12861	     7369.7482
        608.00	     232420.18	     128.55748	     7370.0532
        609.00	     238422.45	     833.88251	     7370.5684
        610.00	     246261.45	     831.81219	     7370.8728
        611.00	     255533.99	     132.67548	     7371.2861
        612.00	     260790.01	     707.06076	     7371.7986
        613.00	     269477.24	     160.81600	     7372.1034
        614.00	     274355.06	     588.28362	     7372.6221
        615.00	     280939.33	     546.24223	     7372.9264
        616.00	     288566.45	     103.78687	     7373.3397
        617.00	     293085.89	     459.27785	     7373.8524
        618.00	     300354.55	     115.56497	     7374.1572
        619.00	     304904.28	     400.08030	     7374.6755
        620.00	     311033.59	     307.11677	     7374.9800
        621.00	     316295.57	     312.61814	     7375.2845
        622.00	     322220.88	     138.86689	     7375.6978
        623.00	     327092.33	     227.83480	     7376.2165
        624.00	     332695.08	     82.263151	     7376.5216
        625.00	     336825.85	     248.53792	     7377.0369
        626.00	     342591.99	     69.651592	     7377.3418
        627.00	     347211.21	     155.85972	     7377.8572
        628.00	     352049.44	     106.61017	     7378.1620
        629.00	     357367.22	     72.246871	     7378.6805
        630.00	     362014.43	     144.90519	     7379.1929
        631.00	     366901.24	     135.42848	     7379.4974
        632.00	     371849.32	     136.35318	     7379.9107
        633.00	     377203.04	     99.071426	     7380.4233
        634.00	     381756.23	     92.484619	     7380.7282
        635.00	     385416.25	     96.909926	     7381.2434
        636.00	     390794.51	     151.48559	     7381.5479
        637.00	     395281.90	     108.79054	     7381.9613
        638.00	     400102.42	     70.461600	     7382.4740
        639.00	     404805.33	     152.41971	     7382.7782
        640.00	     408711.15	     98.013190	     7383.1914
        641.00	     413807.56	     133.60526	     7383.7041
        642.00	     418159.48	     143.20248	     7384.0088
        643.00	     421219.94	     162.58024	     7384.4219
        644.00	     426267.49	     237.85237	     7384.9346
        645.00	     430170.51	     212.26948	     7385.2390
        646.00	     433735.48	     104.74192	     7385.6521
        647.00	     438307.45	     353.91386	     7386.1680
        648.00	     441634.91	     295.32429	     7386.4723
        649.00	     444260.24	     117.81068	     7386.8857
        650.00	     448502.26	     437.77751	     7387.3980
        651.00	     451864.31	     514.02399	     7387.7028
        652.00	     455120.33	     540.35067	     7388.0073
        653.00	     456926.41	     124.40478	     7388.4204
        654.00	     460210.94	     661.71271	     7388.9391
        655.00	     462089.06	     613.71375	     7389.2437
        656.00	     464112.55	     633.49383	     7389.5483
        657.00	     463837.23	     125.70422	     7389.9614
        658.00	     465106.98	     160.79675	     7390.4804
        659.00	     468107.22	     928.27997	     7390.9929
        660.00	     466793.48	     86.988541	     7391.2977
        661.00	     468173.75	     1060.9940	     7391.8130
        662.00	     465678.01	     171.59172	     7392.1179
        663.00	     468242.40	     1025.9164	     7392.6332
        664.00	     467412.41	     1232.6239	     7392.9378
        665.00	     465361.45	     1262.6045	     7393.2421
        666.00	     462080.60	     233.48793	     7393.6555
        667.00	     463580.76	     1363.7433	     7394.1744
        668.00	     460185.13	     1356.2822	     7394.4786
        669.00	     458367.83	     1423.6455	     7394.7832
        670.00	     452209.91	     343.61740	     7395.1963
        671.00	     452203.84	     1596.4810	     7395.7153
        672.00	     445026.57	     282.07408	     7396.0202
        673.00	     445644.66	     1682.8485	     7396.5385
        674.00	     438183.38	     262.92763	     7396.8435
        675.00	     437765.77	     1719.8281	     7397.3618
        676.00	     432463.29	     1639.0634	     7397.6664
        677.00	     424393.67	     316.53081	     7398.0796
        678.00	     424588.43	     1674.0643	     7398.5924
        679.00	     419219.07	     1734.8371	     7398.8970
        680.00	     413366.22	     1616.3027	     7399.2011
        681.00	     404309.73	     368.92527	     7399.6145
        682.00	     404035.74	     1768.2545	     7400.1332
        683.00	     398196.75	     1764.8180	     7400.4380
        684.00	     392183.22	     1663.6137	     7400.7424
        685.00	     383177.45	     335.70007	     7401.1553
        686.00	     381752.63	     1899.1468	     7401.6743
        687.00	     376150.76	     1681.3588	     7401.9789
        688.00	     366962.15	     426.63341	     7402.3920
        689.00	     365371.40	     1859.0352	     7402.9044
        690.00	     360116.08	     1868.3330	     7403.2088
        691.00	     350481.78	     474.60312	     7403.6223
        692.00	     349188.73	     1636.6629	     7404.1348
        693.00	     344103.37	     1599.2605	     7404.4393
        694.00	     335276.37	     354.21920	     7404.8526
        695.00	     334413.10	     1747.8437	     7405.3650
        696.00	     328011.97	     1643.3793	     7405.6698
        697.00	     319515.54	     333.13570	     7406.0829
        698.00	     313540.69	     456.95227	     7406.5958
        699.00	     313219.25	     1455.0211	     7407.1084
        700.00	     308507.65	     1520.6814	     7407.4127
        701.00	     299394.96	     424.46095	     7407.8259
        702.00	     298020.46	     1588.2172	     7408.3386
        703.00	     288970.50	     310.06353	     7408.6435
        704.00	     288493.42	     1440.6281	     7409.1588
        705.00	     283040.33	     1547.9785	     7409.4635
        706.00	     277492.29	     1476.6761	     7409.7677
        707.00	     269190.24	     427.44061	     7410.1809
        708.00	     268517.83	     1405.9977	     7410.6996
        709.00	     263762.51	     1380.8363	     7411.0040
        710.00	     254723.05	     441.01835	     7411.4173
        711.00	     250411.71	     417.44086	     7411.9304
        712.00	     248140.86	     1312.6140	     7412.4426
        713.00	     243826.27	     1317.4699	     7412.7474
        714.00	     235840.29	     453.48172	     7413.1604
        715.00	     231863.23	     391.66155	     7413.6763
        716.00	     229305.03	     1165.0510	     7414.1886
        717.00	     225461.49	     1180.6440	     7414.4931
        718.00	     217304.92	     356.15839	     7414.9064
        719.00	     216031.14	     1233.6554	     7415.4191
        720.00	     211028.96	     1323.4921	     7415.7233
        721.00	     203995.42	     315.25240	     7416.1367
        722.00	     202352.07	     1045.4861	     7416.6492
        723.00	     194780.27	     400.94395	     7416.9542
        724.00	     193291.97	     1285.1396	     7417.4727
        725.00	     188502.14	     1417.2207	     7417.7772
        726.00	     181588.85	     285.28640	     7418.1904
        727.00	     179771.46	     1073.7606	     7418.7062
        728.00	     175999.18	     1114.8825	     7419.0105
        729.00	     168088.12	     344.63217	     7419.4238
        730.00	     166858.79	     1051.0029	     7419.9362
        731.00	     162927.59	     1100.9922	     7420.2410
        732.00	     156016.02	     361.22388	     7420.6541
        733.00	     155358.51	     995.78024	     7421.1667
        734.00	     151338.26	     1049.1964	     7421.4715
        735.00	     146834.56	     967.74284	     7421.7754
        736.00	     142009.75	     407.16718	     7422.1889
        737.00	     139977.95	     1007.2255	     7422.7075
        738.00	     135718.26	     880.41027	     7423.0122
        739.00	     130726.55	     183.12358	     7423.4254
        740.00	     128964.00	     893.11374	     7423.9378
        741.00	     125853.37	     776.94550	     7424.2426
        742.00	     120896.48	     311.00793	     7424.6557
        743.00	     117905.69	     346.46775	     7425.1685
        744.00	     114706.88	     244.23175	     7425.6843
        745.00	     113866.76	     704.26379	     7426.1965
        746.00	     110876.79	     735.83229	     7426.5012
        747.00	     107503.70	     685.05623	     7426.8057
        748.00	     102929.94	     235.16678	     7427.2188
        749.00	     102049.87	     695.84010	     7427.7379
        750.00	     99554.972	     783.91749	     7428.0423
        751.00	     96307.428	     551.79561	     7428.3466
        752.00	     92260.653	     231.84122	     7428.7598
        753.00	     91755.545	     612.84346	     7429.2786
        754.00	     88058.260	     234.88302	     7429.5835
        755.00	     87132.309	     394.68862	     7430.1018
        756.00	     83284.152	     280.61487	     7430.4064
        757.00	     83017.208	     420.77007	     7430.9221
        758.00	     79801.192	     277.39069	     7431.2272
        759.00	     77628.530	     354.21437	     7431.7427
        760.00	     76493.207	     500.80043	     7432.2549
        761.00	     75136.953	     518.60919	     7432.5594
        762.00	     72459.921	     159.98024	     7432.9727
        763.00	     69942.187	     360.06791	     7433.4886
        764.00	     68681.779	     554.49953	     7433.9980
        765.00	     67516.809	     506.17742	     7434.3024
        766.00	     64906.872	     263.48141	     7434.7157
        767.00	     64063.430	     471.29849	     7435.2285
        768.00	     62718.747	     549.44280	     7435.5331
        769.00	     61869.074	     458.62458	     7435.9460
        770.00	     58275.490	     268.33233	     7436.2503
        771.00	     57825.355	     479.60207	     7436.7661
        772.00	     55502.282	     185.53290	     7437.0712
        773.00	     54611.994	     294.14264	     7437.5864
        774.00	     53123.149	     177.45713	     7437.8912
        775.00	     52147.475	     271.28740	     7438.4065
        776.00	     50124.718	     222.12177	     7438.7114
        777.00	     49761.797	     397.23579	     7439.2271
        778.00	     48638.287	     209.87353	     7439.5315
        779.00	     46823.754	     197.65915	     7439.9446
        780.00	     46124.174	     244.03264	     7440.4570
        781.00	     45052.248	     261.29446	     7440.7616
        782.00	     43513.227	     270.90784	     7441.1748
        783.00	     42471.545	     254.10660	     7441.6877
        784.00	     42054.077	     227.17389	     7442.2002
        785.00	     40696.262	     375.31646	     7442.5047
        786.00	     39417.187	     161.60847	     7442.9178
        787.00	     38578.681	     238.45182	     7443.4307
        788.00	     37882.029	     299.41404	     7443.9430
        789.00	     37321.472	     261.55191	     7444.2478
        790.00	     36219.080	     171.75079	     7444.6606
        791.00	     36352.831	     273.83243	     7445.1736
        792.00	     35079.889	     332.52600	     7445.4780
        793.00	     34672.856	     268.02240	     7445.8911
        794.00	     34315.200	     272.28743	     7446.4037
        795.00	     33259.747	     241.84682	     7446.7080
        796.00	     31939.604	     222.68477	     7447.1214
        797.00	     30964.592	     213.55740	     7447.6343
        798.00	     28781.380	     130.02034	     7447.9386
        799.00	     27698.846	     136.54206	     7448.3517
        800.00	     27117.453	     215.27398	     7448.8644
