Title=200220_em_NaOH-EtOH_2,0uM_Flu
Comment=
Signature=ISS_Experiment_Ver_1_0
Timestamp=Thu Feb 20 19:29:31 2020
Product=Vinci2
SoftwareVersion=BETA.2.4
BuildNumber=234
RealTimeStart=10672.1523191

AcquisitionType=Photon Counting
AcquisitionFormat=L
AcquisitionSide=Right
Detector Gains=(0.0, 0.0)

Measurable=Intensity
MaxIterations=10

RightEmissionWavelengthBandwidth=8.0
ExcitationWavelengthBandwidth=8.0
Visualization=Y:Intensity,X:EmissionWavelength,PlotType:2D


EmissionWavelength=type:numeric,unit:nm,from:400.0,to:800.0,step:1.0
ExcitationWavelength=type:numeric,unit:nm,fixed:500.0

Space=EmissionWavelength
Columns=EmissionWavelength,Intensity,IntensityStdError,RealTime
[Data]
        400.00	     1139.3634	     5.7997121	     10675.276
        401.00	     1154.0216	     9.6212548	     10675.848
        402.00	     1184.6268	     6.9531321	     10676.152
        403.00	     1195.3475	     6.0381505	     10676.671
        404.00	     1222.3135	     7.3278454	     10676.976
        405.00	     1239.8113	     8.5917155	     10677.388
        406.00	     1255.8800	     7.7255654	     10677.693
        407.00	     1290.4241	     7.4938991	     10677.998
        408.00	     1301.2542	     6.5851733	     10678.520
        409.00	     1332.2595	     9.4424462	     10678.824
        410.00	     1341.4636	     8.4956731	     10679.340
        411.00	     1364.1094	     8.1874764	     10679.644
        412.00	     1394.0338	     6.7014876	     10680.057
        413.00	     1417.6307	     7.4255198	     10680.570
        414.00	     1456.6048	     5.3374976	     10680.875
        415.00	     1450.7395	     8.9076803	     10681.179
        416.00	     1482.6812	     4.9645914	     10681.592
        417.00	     1509.5099	     4.2674976	     10682.111
        418.00	     1535.3980	     6.4739909	     10682.416
        419.00	     1566.6431	     7.1581740	     10682.931
        420.00	     1570.8848	     8.9761326	     10683.236
        421.00	     1606.4405	     9.5568583	     10683.649
        422.00	     1630.0640	     10.606105	     10684.162
        423.00	     1656.1985	     7.0652917	     10684.467
        424.00	     1665.0850	     8.3692872	     10684.985
        425.00	     1699.7640	     7.2731335	     10685.289
        426.00	     1738.4131	     6.4915255	     10685.703
        427.00	     1744.1573	     7.9566816	     10686.215
        428.00	     1770.1149	     10.496527	     10686.520
        429.00	     1784.7007	     9.8190611	     10686.824
        430.00	     1825.7528	     9.9808872	     10687.237
        431.00	     1838.7299	     10.138409	     10687.756
        432.00	     1851.6493	     10.629628	     10688.061
        433.00	     1873.9101	     10.454842	     10688.580
        434.00	     1905.8044	     7.4284315	     10688.884
        435.00	     1936.2271	     8.7869543	     10689.297
        436.00	     1938.9791	     6.1941343	     10689.813
        437.00	     1968.0364	     10.401023	     10690.326
        438.00	     2003.2911	     4.0375808	     10690.633
        439.00	     2022.3020	     12.317512	     10691.152
        440.00	     2038.6672	     14.961764	     10691.662
        441.00	     2073.9270	     5.5217132	     10691.966
        442.00	     2097.2252	     12.638391	     10692.482
        443.00	     2156.9945	     7.8908491	     10692.786
        444.00	     2169.3733	     13.262838	     10693.199
        445.00	     2225.1467	     9.7115386	     10693.712
        446.00	     2239.9099	     11.188624	     10694.017
        447.00	     2311.1589	     9.6861423	     10694.430
        448.00	     2355.2154	     10.129845	     10694.942
        449.00	     2377.0065	     15.371856	     10695.247
        450.00	     2417.2336	     11.451631	     10695.660
        451.00	     2509.2228	     6.4308825	     10695.965
        452.00	     2584.2853	     17.044401	     10696.480
        453.00	     2653.4711	     8.6787492	     10696.785
        454.00	     2758.8352	     11.053809	     10697.198
        455.00	     2859.4567	     18.187120	     10697.710
        456.00	     2938.9984	     19.983725	     10698.015
        457.00	     3145.2080	     23.294300	     10698.319
        458.00	     3317.0560	     11.669304	     10698.733
        459.00	     3443.9466	     28.212342	     10699.252
        460.00	     3646.2591	     38.951451	     10699.556
        461.00	     3850.2833	     30.104637	     10699.860
        462.00	     4211.1613	     14.866897	     10700.274
        463.00	     4450.4656	     48.621362	     10700.793
        464.00	     4796.5921	     51.159976	     10701.097
        465.00	     5189.4741	     55.549887	     10701.401
        466.00	     5822.8784	     15.793940	     10701.815
        467.00	     6283.7186	     15.437190	     10702.334
        468.00	     6694.6530	     87.974726	     10702.846
        469.00	     7608.4091	     11.625614	     10703.151
        470.00	     8042.5681	     121.43218	     10703.669
        471.00	     9322.2733	     10.585111	     10703.974
        472.00	     9939.2080	     155.94522	     10704.490
        473.00	     11554.582	     24.933405	     10704.795
        474.00	     12421.344	     213.02211	     10705.310
        475.00	     14033.165	     237.75082	     10705.614
        476.00	     16708.190	     28.610060	     10706.028
        477.00	     18136.194	     366.28903	     10706.540
        478.00	     20828.695	     424.55151	     10706.845
        479.00	     25323.823	     34.273581	     10707.258
        480.00	     28050.494	     624.04239	     10707.771
        481.00	     33186.223	     815.14968	     10708.075
        482.00	     41967.622	     44.369953	     10708.488
        483.00	     47152.772	     1224.2972	     10709.001
        484.00	     59925.885	     57.990636	     10709.306
        485.00	     66815.773	     1710.2225	     10709.821
        486.00	     82951.014	     53.099841	     10710.126
        487.00	     90144.112	     1766.6549	     10710.641
        488.00	     105206.46	     53.709884	     10710.946
        489.00	     110846.43	     1300.4766	     10711.462
        490.00	     118611.67	     968.72416	     10711.766
        491.00	     126162.11	     44.266017	     10712.179
        492.00	     128788.49	     524.29632	     10712.695
        493.00	     133489.50	     31.668253	     10713.000
        494.00	     135341.90	     316.09103	     10713.515
        495.00	     138214.94	     27.353951	     10713.820
        496.00	     139508.98	     190.08841	     10714.338
        497.00	     142453.07	     23.615453	     10714.643
        498.00	     145313.13	     117.64700	     10715.159
        499.00	     149981.86	     25.217100	     10715.464
        500.00	     154848.80	     97.595244	     10715.979
        501.00	     159815.40	     69.626755	     10716.284
        502.00	     164838.54	     42.746199	     10716.697
        503.00	     169620.38	     53.101233	     10717.209
        504.00	     174192.71	     42.540917	     10717.514
        505.00	     178230.87	     75.143100	     10718.033
        506.00	     181773.49	     68.920670	     10718.337
        507.00	     184747.49	     27.497047	     10718.751
        508.00	     186728.29	     72.231405	     10719.266
        509.00	     187767.58	     42.784610	     10719.571
        510.00	     188980.02	     32.626339	     10719.875
        511.00	     189171.35	     34.729394	     10720.397
        512.00	     189340.50	     47.731494	     10720.702
        513.00	     188650.09	     51.877902	     10721.217
        514.00	     187802.26	     38.381645	     10721.522
        515.00	     187192.62	     63.763354	     10721.935
        516.00	     186391.43	     43.834994	     10722.448
        517.00	     185652.96	     33.388711	     10722.960
        518.00	     185078.05	     51.739214	     10723.265
        519.00	     184458.91	     37.542297	     10723.783
        520.00	     183583.20	     63.235556	     10724.088
        521.00	     183295.62	     38.905773	     10724.501
        522.00	     183044.28	     41.610388	     10725.014
        523.00	     183049.66	     43.418169	     10725.318
        524.00	     183065.41	     49.450644	     10725.623
        525.00	     182649.23	     48.003327	     10726.036
        526.00	     182826.31	     33.245688	     10726.555
        527.00	     182927.37	     44.431559	     10726.859
        528.00	     183466.82	     40.056733	     10727.164
        529.00	     183724.27	     45.331601	     10727.577
        530.00	     184191.38	     48.001510	     10728.096
        531.00	     184442.22	     40.983004	     10728.400
        532.00	     185041.21	     43.802768	     10728.705
        533.00	     185707.34	     68.440166	     10729.118
        534.00	     186255.73	     32.597544	     10729.637
        535.00	     186941.63	     47.150319	     10729.942
        536.00	     187721.12	     42.252997	     10730.460
        537.00	     188537.97	     56.258871	     10730.765
        538.00	     189370.41	     62.233241	     10731.280
        539.00	     190182.33	     45.376904	     10731.585
        540.00	     191120.62	     35.401734	     10731.889
        541.00	     192215.49	     38.641883	     10732.302
        542.00	     193018.03	     37.099110	     10732.821
        543.00	     193971.74	     38.993334	     10733.126
        544.00	     195075.43	     68.453716	     10733.430
        545.00	     195905.49	     50.855155	     10733.843
        546.00	     197095.14	     43.487795	     10734.362
        547.00	     198121.93	     54.889234	     10734.667
        548.00	     199359.15	     46.886533	     10734.971
        549.00	     200670.60	     41.456406	     10735.384
        550.00	     201871.15	     52.707409	     10735.903
        551.00	     202931.86	     40.096330	     10736.208
        552.00	     204133.24	     38.421312	     10736.512
        553.00	     205623.57	     51.507467	     10736.925
        554.00	     206631.83	     54.008149	     10737.230
        555.00	     208068.13	     50.698759	     10737.752
        556.00	     209468.20	     63.981957	     10738.056
        557.00	     210845.33	     44.175015	     10738.470
        558.00	     212347.73	     44.887092	     10738.982
        559.00	     214069.47	     27.725815	     10739.287
        560.00	     215257.84	     60.597783	     10739.700
        561.00	     216718.13	     60.919129	     10740.213
        562.00	     218326.09	     35.602843	     10740.517
        563.00	     219666.92	     65.567544	     10740.930
        564.00	     221392.93	     72.868808	     10741.443
        565.00	     223031.90	     59.412358	     10741.747
        566.00	     224894.21	     43.785584	     10742.161
        567.00	     226413.77	     52.700165	     10742.673
        568.00	     227988.24	     57.103109	     10742.977
        569.00	     229974.48	     54.719152	     10743.391
        570.00	     231279.79	     62.011126	     10743.904
        571.00	     232992.41	     73.968444	     10744.208
        572.00	     234709.98	     48.610931	     10744.621
        573.00	     236656.87	     47.375598	     10745.134
        574.00	     238003.28	     75.312400	     10745.438
        575.00	     239990.18	     51.572947	     10745.743
        576.00	     241376.32	     95.885700	     10746.265
        577.00	     243096.24	     41.870778	     10746.569
        578.00	     244719.22	     67.749295	     10746.874
        579.00	     246386.97	     55.833127	     10747.287
        580.00	     248396.65	     58.770639	     10747.806
        581.00	     249891.27	     55.491367	     10748.111
        582.00	     251247.41	     70.037616	     10748.626
        583.00	     252874.42	     99.661904	     10748.930
        584.00	     254021.02	     57.212635	     10749.343
        585.00	     255830.88	     118.09050	     10749.856
        586.00	     257342.94	     87.988697	     10750.161
        587.00	     258179.45	     57.018791	     10750.574
        588.00	     259342.08	     138.17800	     10751.087
        589.00	     260825.94	     144.73958	     10751.391
        590.00	     261440.52	     47.744881	     10751.804
        591.00	     262704.10	     126.10565	     10752.317
        592.00	     263671.81	     58.583970	     10752.622
        593.00	     264601.89	     151.44734	     10753.137
        594.00	     265391.72	     158.02949	     10753.441
        595.00	     265815.57	     56.914402	     10753.855
        596.00	     267609.45	     188.29151	     10754.367
        597.00	     268383.31	     218.53347	     10754.672
        598.00	     268993.58	     208.16720	     10754.976
        599.00	     269099.52	     74.084454	     10755.389
        600.00	     270202.35	     264.68830	     10755.908
        601.00	     270672.71	     277.33304	     10756.213
        602.00	     270684.94	     80.374825	     10756.626
        603.00	     271508.81	     308.06623	     10757.139
        604.00	     271642.17	     371.70959	     10757.443
        605.00	     271152.24	     86.954417	     10757.856
        606.00	     272019.83	     429.86053	     10758.372
        607.00	     270600.91	     104.82349	     10758.677
        608.00	     271087.96	     437.27784	     10759.192
        609.00	     270967.37	     458.91623	     10759.497
        610.00	     270476.74	     482.45992	     10759.801
        611.00	     270321.49	     602.62380	     10760.214
        612.00	     266822.05	     61.205686	     10760.519
        613.00	     267132.06	     656.89140	     10761.044
        614.00	     265101.31	     668.54902	     10761.348
        615.00	     262065.71	     103.66336	     10761.762
        616.00	     262078.25	     772.43527	     10762.274
        617.00	     257578.52	     128.30191	     10762.579
        618.00	     257788.46	     825.32084	     10763.095
        619.00	     254943.73	     861.62607	     10763.399
        620.00	     252865.92	     899.30859	     10763.703
        621.00	     247835.82	     131.20141	     10764.117
        622.00	     244878.51	     88.539167	     10764.636
        623.00	     243900.65	     984.33099	     10765.148
        624.00	     240392.85	     1019.9657	     10765.453
        625.00	     234687.57	     147.98663	     10765.866
        626.00	     233436.19	     975.41542	     10766.378
        627.00	     229815.90	     1105.7554	     10766.683
        628.00	     223053.14	     113.64974	     10767.096
        629.00	     221721.37	     995.47760	     10767.609
        630.00	     217766.18	     1018.0436	     10767.913
        631.00	     213446.60	     995.02959	     10768.218
        632.00	     206468.28	     164.73503	     10768.631
        633.00	     205300.82	     1131.6897	     10769.150
        634.00	     200485.67	     1070.8222	     10769.454
        635.00	     195832.15	     1031.4935	     10769.759
        636.00	     189287.44	     117.37386	     10770.079
        637.00	     184943.15	     149.86383	     10770.592
        638.00	     182628.36	     1175.9736	     10771.107
        639.00	     178032.81	     1013.8278	     10771.411
        640.00	     171234.31	     203.82848	     10771.825
        641.00	     169236.96	     1088.0577	     10772.337
        642.00	     162148.33	     166.38150	     10772.642
        643.00	     160443.99	     1008.3954	     10773.158
        644.00	     153135.68	     157.94614	     10773.462
        645.00	     151400.08	     1015.0448	     10773.978
        646.00	     147312.87	     889.28610	     10774.282
        647.00	     140959.23	     188.18281	     10774.696
        648.00	     138952.98	     829.25778	     10775.208
        649.00	     133106.67	     195.61648	     10775.513
        650.00	     131187.36	     860.58992	     10776.031
        651.00	     127742.39	     878.93387	     10776.336
        652.00	     121956.42	     178.84551	     10776.749
        653.00	     120805.32	     759.13865	     10777.262
        654.00	     116704.24	     737.38020	     10777.566
        655.00	     113260.57	     723.16902	     10777.871
        656.00	     108846.65	     170.38587	     10778.284
        657.00	     105224.85	     156.72930	     10778.803
        658.00	     104222.87	     814.75331	     10779.315
        659.00	     99855.684	     124.52798	     10779.620
        660.00	     98260.970	     635.29439	     10780.136
        661.00	     94172.677	     178.80081	     10780.440
        662.00	     92771.411	     695.73513	     10780.959
        663.00	     90234.624	     573.65552	     10781.263
        664.00	     86470.140	     196.26561	     10781.677
        665.00	     85566.617	     566.11435	     10782.189
        666.00	     83119.026	     525.97295	     10782.494
        667.00	     80940.414	     542.13754	     10782.798
        668.00	     77564.060	     124.37396	     10783.211
        669.00	     76668.154	     462.15306	     10783.730
        670.00	     74792.897	     442.77632	     10784.035
        671.00	     71332.579	     139.83811	     10784.448
        672.00	     70699.869	     420.73483	     10784.961
        673.00	     68859.518	     447.55929	     10785.265
        674.00	     66197.640	     121.48240	     10785.678
        675.00	     65632.055	     477.85101	     10786.191
        676.00	     63797.150	     403.88703	     10786.495
        677.00	     62918.731	     426.03595	     10786.908
        678.00	     59662.420	     120.80283	     10787.213
        679.00	     58901.327	     348.05400	     10787.729
        680.00	     57671.807	     425.90194	     10788.033
        681.00	     56070.818	     311.41101	     10788.338
        682.00	     53943.200	     106.98386	     10788.751
        683.00	     53662.731	     405.61537	     10789.270
        684.00	     52134.491	     372.03346	     10789.575
        685.00	     50838.161	     251.45222	     10789.879
        686.00	     48899.688	     118.83301	     10790.292
        687.00	     48475.812	     300.50186	     10790.811
        688.00	     47041.217	     358.30463	     10791.115
        689.00	     45295.293	     97.402419	     10791.420
        690.00	     44463.746	     175.83512	     10791.942
        691.00	     44039.614	     239.16372	     10792.454
        692.00	     42191.751	     130.58530	     10792.759
        693.00	     41628.307	     299.14396	     10793.277
        694.00	     40797.588	     255.37426	     10793.582
        695.00	     39214.810	     126.98728	     10793.995
        696.00	     38887.562	     264.97301	     10794.511
        697.00	     37193.160	     151.12965	     10794.816
        698.00	     37164.911	     279.32591	     10795.331
        699.00	     36038.832	     262.48137	     10795.636
        700.00	     35044.008	     155.68915	     10796.049
        701.00	     33746.514	     103.22339	     10796.562
        702.00	     33512.695	     243.36768	     10797.074
        703.00	     32862.590	     246.63644	     10797.378
        704.00	     31589.780	     122.81945	     10797.792
        705.00	     31340.122	     221.16009	     10798.304
        706.00	     30654.291	     163.22530	     10798.609
        707.00	     29578.703	     114.05268	     10799.022
        708.00	     29443.561	     185.14037	     10799.535
        709.00	     28694.890	     186.94537	     10799.839
        710.00	     27642.354	     109.68816	     10800.253
        711.00	     27211.041	     189.80302	     10800.765
        712.00	     26263.391	     74.880880	     10801.070
        713.00	     26072.027	     177.34221	     10801.588
        714.00	     25334.937	     113.55387	     10801.893
        715.00	     25221.367	     198.85084	     10802.409
        716.00	     24462.611	     164.88066	     10802.713
        717.00	     23860.054	     107.49532	     10803.126
        718.00	     23343.671	     176.62940	     10803.639
        719.00	     23033.359	     179.21859	     10803.944
        720.00	     22404.829	     105.50472	     10804.357
        721.00	     22001.418	     109.42770	     10804.870
        722.00	     21742.063	     196.18977	     10805.385
        723.00	     21429.971	     157.33067	     10805.689
        724.00	     20702.431	     57.631487	     10806.103
        725.00	     20662.637	     158.11587	     10806.615
        726.00	     20076.118	     102.72964	     10806.920
        727.00	     19667.124	     175.55969	     10807.436
        728.00	     19452.038	     132.69067	     10807.740
        729.00	     18769.978	     155.59646	     10808.153
        730.00	     18646.053	     183.57964	     10808.669
        731.00	     18306.696	     136.07382	     10808.973
        732.00	     17935.822	     95.335253	     10809.387
        733.00	     17759.838	     186.68722	     10809.899
        734.00	     17088.707	     129.92253	     10810.204
        735.00	     17171.006	     72.306389	     10810.726
        736.00	     16829.777	     118.73989	     10811.235
        737.00	     16580.622	     72.652167	     10811.540
        738.00	     16117.485	     92.204841	     10812.056
        739.00	     15680.339	     86.063680	     10812.568
        740.00	     15628.794	     182.52953	     10813.081
        741.00	     15590.776	     128.87221	     10813.385
        742.00	     15117.691	     102.55277	     10813.690
        743.00	     15123.346	     135.48136	     10814.211
        744.00	     14872.276	     131.32496	     10814.516
        745.00	     14426.029	     130.18463	     10814.929
        746.00	     14263.056	     105.48365	     10815.445
        747.00	     14226.505	     106.80446	     10815.958
        748.00	     14464.634	     136.83709	     10816.470
        749.00	     14077.561	     83.755109	     10816.775
        750.00	     13788.747	     146.30209	     10817.079
        751.00	     13667.852	     138.55089	     10817.492
        752.00	     13551.002	     111.97665	     10818.012
        753.00	     13546.076	     89.560340	     10818.316
        754.00	     12985.086	     142.35929	     10818.620
        755.00	     12795.598	     79.985089	     10819.034
        756.00	     12931.263	     161.65505	     10819.552
        757.00	     12617.872	     111.02042	     10819.857
        758.00	     12720.353	     83.818040	     10820.375
        759.00	     12331.693	     110.44928	     10820.680
        760.00	     12284.068	     170.78244	     10821.196
        761.00	     12339.104	     135.01315	     10821.501
        762.00	     11944.249	     114.19195	     10821.914
        763.00	     11570.997	     159.63004	     10822.426
        764.00	     11878.045	     103.36271	     10822.731
        765.00	     11202.693	     86.755654	     10823.144
        766.00	     11677.513	     141.43366	     10823.656
        767.00	     11431.861	     141.95229	     10823.961
        768.00	     11375.425	     146.08966	     10824.477
        769.00	     11210.938	     142.77457	     10824.781
        770.00	     10823.709	     94.011905	     10825.194
        771.00	     10906.976	     109.38043	     10825.710
        772.00	     10804.095	     125.21110	     10826.223
        773.00	     10463.622	     78.110909	     10826.735
        774.00	     10595.575	     132.32263	     10827.040
        775.00	     10453.122	     98.961136	     10827.453
        776.00	     10361.236	     143.66310	     10827.966
        777.00	     10373.806	     120.55713	     10828.478
        778.00	     10182.566	     130.12392	     10828.783
        779.00	     10242.762	     126.69000	     10829.087
        780.00	     10057.379	     80.403820	     10829.500
        781.00	     10066.292	     82.554781	     10830.019
        782.00	     10013.616	     60.992003	     10830.324
        783.00	     10108.555	     100.79541	     10830.628
        784.00	     9783.4292	     133.36306	     10831.041
        785.00	     9919.9880	     99.042788	     10831.560
        786.00	     9758.3110	     166.46963	     10831.865
        787.00	     9758.8184	     107.20344	     10832.170
        788.00	     9675.4701	     135.73520	     10832.691
        789.00	     9802.8674	     117.72839	     10832.996
        790.00	     9560.2401	     131.10494	     10833.409
        791.00	     9610.3742	     104.15959	     10833.922
        792.00	     9374.6208	     150.80905	     10834.226
        793.00	     9577.0266	     93.199740	     10834.742
        794.00	     9358.4000	     175.87875	     10835.047
        795.00	     9339.1628	     128.86523	     10835.565
        796.00	     9058.8433	     150.25508	     10835.870
        797.00	     8738.3569	     63.948989	     10836.389
        798.00	     8368.6312	     103.08233	     10836.693
        799.00	     7850.7780	     106.37451	     10837.106
        800.00	     7804.1014	     56.606245	     10837.619
