Title=200220_em_MeCN_2,0uM_Rho6G
Comment=
Signature=ISS_Experiment_Ver_1_0
Timestamp=Thu Feb 20 14:11:23 2020
Product=Vinci2
SoftwareVersion=BETA.2.4
BuildNumber=234
RealTimeStart=4741.92080725

AcquisitionType=Photon Counting
AcquisitionFormat=L
AcquisitionSide=Right
Detector Gains=(0.0, 0.0)

Measurable=Intensity
MaxIterations=10

RightEmissionWavelengthBandwidth=8.0
ExcitationWavelengthBandwidth=8.0
Visualization=Y:Intensity,X:EmissionWavelength,PlotType:2D


EmissionWavelength=type:numeric,unit:nm,from:400.0,to:800.0,step:1.0
ExcitationWavelength=type:numeric,unit:nm,fixed:524.0

Space=EmissionWavelength
Columns=EmissionWavelength,Intensity,IntensityStdError,RealTime
[Data]
        400.00	     737.22160	     5.3212975	     4743.6712
        401.00	     726.26744	     5.3724413	     4744.2955
        402.00	     736.32705	     4.3659760	     4744.6002
        403.00	     725.71486	     6.4861259	     4744.9047
        404.00	     740.60382	     7.3510038	     4745.3178
        405.00	     738.37527	     7.0811080	     4745.8367
        406.00	     742.21320	     4.2919622	     4746.1412
        407.00	     749.46891	     4.2166254	     4746.4454
        408.00	     751.80401	     5.0058537	     4746.8589
        409.00	     750.53174	     6.5817340	     4747.3778
        410.00	     764.14231	     4.7882069	     4747.6824
        411.00	     765.16854	     6.2930574	     4747.9866
        412.00	     775.02003	     5.4610729	     4748.3999
        413.00	     779.58575	     4.4521350	     4748.9188
        414.00	     780.38234	     5.3840606	     4749.2232
        415.00	     787.02668	     4.5455023	     4749.5278
        416.00	     813.24692	     2.5567939	     4749.9409
        417.00	     814.70677	     4.4094569	     4750.4629
        418.00	     827.69331	     8.0726153	     4750.7674
        419.00	     840.76759	     4.5918455	     4751.1803
        420.00	     848.49476	     3.4658783	     4751.4850
        421.00	     886.57570	     6.5206676	     4751.7895
        422.00	     886.76418	     3.9155654	     4752.3081
        423.00	     913.56467	     5.4617924	     4752.6128
        424.00	     927.31450	     6.5163721	     4752.9171
        425.00	     941.36045	     8.6561881	     4753.3304
        426.00	     959.37849	     6.6493183	     4753.8493
        427.00	     985.45189	     9.9331744	     4754.1536
        428.00	     1006.1553	     5.0547408	     4754.4583
        429.00	     1035.0764	     6.8210449	     4754.8714
        430.00	     1042.0344	     9.2347651	     4755.3902
        431.00	     1079.4914	     6.2042820	     4755.6948
        432.00	     1112.6238	     9.5294979	     4755.9991
        433.00	     1136.1460	     9.3372368	     4756.4125
        434.00	     1166.6959	     8.2365387	     4756.9312
        435.00	     1180.0035	     8.4426642	     4757.2358
        436.00	     1194.9967	     7.5830992	     4757.5403
        437.00	     1230.5981	     10.818253	     4757.9535
        438.00	     1247.4700	     9.6374756	     4758.4723
        439.00	     1287.6182	     10.661057	     4758.7769
        440.00	     1297.1417	     5.7505221	     4759.0813
        441.00	     1337.5803	     10.762268	     4759.4945
        442.00	     1365.4005	     6.3544848	     4760.0131
        443.00	     1411.8876	     7.8911687	     4760.3178
        444.00	     1422.4788	     11.715655	     4760.6223
        445.00	     1467.1893	     4.9946125	     4761.0355
        446.00	     1488.5984	     11.527066	     4761.5543
        447.00	     1521.5521	     10.468382	     4761.8588
        448.00	     1565.4614	     10.131317	     4762.1631
        449.00	     1587.5842	     7.9424261	     4762.5765
        450.00	     1609.6365	     8.1357096	     4763.0953
        451.00	     1612.4522	     5.7640990	     4763.4001
        452.00	     1668.1345	     11.528530	     4763.8130
        453.00	     1689.6877	     7.3222211	     4764.3255
        454.00	     1707.5307	     10.505999	     4764.6302
        455.00	     1739.5636	     9.2862436	     4764.9346
        456.00	     1773.0824	     4.2619258	     4765.3478
        457.00	     1787.1191	     7.6864087	     4765.8665
        458.00	     1827.9350	     8.5918712	     4766.1711
        459.00	     1867.6025	     12.536671	     4766.5843
        460.00	     1862.3636	     11.855993	     4767.0999
        461.00	     1908.9211	     6.2561127	     4767.4048
        462.00	     1948.2972	     15.221099	     4767.8177
        463.00	     1943.2546	     10.108855	     4768.3302
        464.00	     1991.7454	     9.0062877	     4768.6349
        465.00	     2067.9382	     10.221142	     4769.0480
        466.00	     2067.7069	     10.322926	     4769.5607
        467.00	     2103.1108	     11.175070	     4769.8650
        468.00	     2130.0058	     8.5350369	     4770.1697
        469.00	     2183.7298	     7.8914000	     4770.5827
        470.00	     2194.1014	     8.0927639	     4771.1018
        471.00	     2273.0229	     9.3369912	     4771.4065
        472.00	     2280.7451	     11.197546	     4771.9251
        473.00	     2344.3250	     8.9262814	     4772.2296
        474.00	     2412.8182	     6.6934211	     4772.6426
        475.00	     2431.7568	     7.6793096	     4773.1552
        476.00	     2491.5201	     11.310287	     4773.4596
        477.00	     2581.3418	     18.780089	     4773.7641
        478.00	     2670.6124	     6.9984255	     4774.1775
        479.00	     2740.4131	     22.102160	     4774.6964
        480.00	     2844.0017	     27.899389	     4775.0008
        481.00	     2945.4559	     23.752423	     4775.3051
        482.00	     3145.1940	     7.3702930	     4775.7184
        483.00	     3257.8929	     17.104436	     4776.2372
        484.00	     3451.2442	     31.386259	     4776.5418
        485.00	     3655.9777	     33.094642	     4776.8462
        486.00	     3982.8428	     22.312064	     4777.2594
        487.00	     4154.0885	     52.328159	     4777.7782
        488.00	     4519.1635	     52.197418	     4778.0826
        489.00	     4852.6982	     56.478319	     4778.3872
        490.00	     5459.8213	     13.830788	     4778.8005
        491.00	     5812.7681	     73.498304	     4779.3191
        492.00	     6370.2192	     93.315506	     4779.6238
        493.00	     7083.2201	     82.609245	     4779.9281
        494.00	     8022.5769	     21.885725	     4780.3413
        495.00	     8615.7154	     140.27481	     4780.8601
        496.00	     9633.1554	     148.66983	     4781.1648
        497.00	     10872.665	     163.55903	     4781.4691
        498.00	     12902.150	     23.915802	     4781.8825
        499.00	     14298.763	     273.03152	     4782.4013
        500.00	     16643.911	     319.34920	     4782.7059
        501.00	     20485.941	     28.669443	     4783.1191
        502.00	     22832.861	     468.85712	     4783.6314
        503.00	     27240.207	     585.48251	     4783.9362
        504.00	     32366.473	     720.75864	     4784.2407
        505.00	     40704.032	     49.079171	     4784.6538
        506.00	     45781.282	     1086.0453	     4785.1725
        507.00	     54557.158	     1265.7010	     4785.4772
        508.00	     67876.507	     59.958825	     4785.8903
        509.00	     75051.946	     1761.8729	     4786.4059
        510.00	     87531.099	     1851.4846	     4786.7106
        511.00	     105361.47	     67.500411	     4787.1237
        512.00	     113482.04	     2101.4633	     4787.6362
        513.00	     126636.31	     2078.8058	     4787.9410
        514.00	     142444.18	     75.515343	     4788.3541
        515.00	     147983.53	     1545.9645	     4788.8665
        516.00	     156071.75	     1191.8822	     4789.1713
        517.00	     161798.95	     849.90899	     4789.4757
        518.00	     167238.98	     57.347433	     4789.8889
        519.00	     168662.22	     528.94313	     4790.4075
        520.00	     171729.60	     58.098865	     4790.7153
        521.00	     172557.07	     314.14024	     4791.2309
        522.00	     174180.50	     239.74733	     4791.5356
        523.00	     175882.51	     44.106809	     4791.9487
        524.00	     176473.59	     136.58983	     4792.4611
        525.00	     177131.10	     39.219598	     4792.7661
        526.00	     177608.16	     107.87978	     4793.2848
        527.00	     178419.08	     100.87007	     4793.5893
        528.00	     179458.12	     70.210336	     4793.8937
        529.00	     180202.58	     34.832242	     4794.3068
        530.00	     180991.35	     60.465931	     4794.8257
        531.00	     181628.14	     65.663194	     4795.1302
        532.00	     182861.43	     41.009238	     4795.5434
        533.00	     183672.97	     55.566827	     4796.0589
        534.00	     184588.36	     85.183170	     4796.3636
        535.00	     185760.35	     45.270546	     4796.7767
        536.00	     186891.17	     47.061032	     4797.2897
        537.00	     187898.29	     39.346697	     4797.8021
        538.00	     189006.51	     35.700150	     4798.1066
        539.00	     190236.49	     61.387859	     4798.5196
        540.00	     191380.65	     44.472108	     4799.0324
        541.00	     192724.73	     53.086492	     4799.3368
        542.00	     193875.08	     55.535378	     4799.6413
        543.00	     195031.31	     53.126055	     4800.0545
        544.00	     196345.11	     53.882514	     4800.5732
        545.00	     197462.36	     39.531975	     4800.8778
        546.00	     198853.79	     36.396922	     4801.2910
        547.00	     200010.38	     26.510740	     4801.8037
        548.00	     201522.49	     44.002073	     4802.1080
        549.00	     202814.62	     57.629488	     4802.5216
        550.00	     204309.60	     46.356544	     4803.0338
        551.00	     205566.67	     61.751104	     4803.3386
        552.00	     206810.87	     28.495382	     4803.7516
        553.00	     208339.96	     53.144872	     4804.2642
        554.00	     209621.61	     36.705657	     4804.5686
        555.00	     211157.04	     51.642724	     4804.8730
        556.00	     212589.50	     52.009463	     4805.2865
        557.00	     214195.30	     60.918464	     4805.8052
        558.00	     215687.51	     45.987905	     4806.1097
        559.00	     217469.02	     40.348887	     4806.4141
        560.00	     218753.12	     37.815761	     4806.8274
        561.00	     220228.36	     46.178831	     4807.3463
        562.00	     221951.96	     88.026153	     4807.6509
        563.00	     223465.11	     59.715484	     4807.9553
        564.00	     224987.98	     36.370784	     4808.3685
        565.00	     226814.84	     70.035593	     4808.8873
        566.00	     228746.23	     43.325051	     4809.1918
        567.00	     230166.71	     40.724705	     4809.4961
        568.00	     231797.19	     70.766403	     4809.9095
        569.00	     233952.90	     77.313518	     4810.4281
        570.00	     235257.94	     55.591924	     4810.7328
        571.00	     236905.40	     63.016574	     4811.0372
        572.00	     238596.45	     46.617404	     4811.4505
        573.00	     240582.04	     55.605459	     4811.9692
        574.00	     242015.05	     66.683190	     4812.2736
        575.00	     244309.57	     89.149192	     4812.5781
        576.00	     245584.78	     85.904344	     4812.9915
        577.00	     247495.80	     60.310726	     4813.5104
        578.00	     249256.79	     49.224038	     4813.8148
        579.00	     251268.69	     62.716438	     4814.1191
        580.00	     253364.51	     38.930357	     4814.5324
        581.00	     255289.35	     75.733231	     4815.0512
        582.00	     256885.47	     58.004557	     4815.3558
        583.00	     258732.36	     67.345287	     4815.6601
        584.00	     260612.83	     72.887695	     4816.0735
        585.00	     262511.56	     92.595161	     4816.5924
        586.00	     264696.27	     51.523164	     4816.8968
        587.00	     266275.73	     55.046841	     4817.2011
        588.00	     267818.22	     69.303987	     4817.6144
        589.00	     270067.64	     89.710296	     4818.1332
        590.00	     271961.78	     62.767772	     4818.4377
        591.00	     273683.43	     63.651845	     4818.7423
        592.00	     275975.27	     85.882802	     4819.1555
        593.00	     277564.34	     51.526016	     4819.6742
        594.00	     279352.84	     77.848048	     4819.9786
        595.00	     281485.56	     72.448163	     4820.2834
        596.00	     283898.44	     68.813679	     4820.6964
        597.00	     286229.65	     55.498951	     4821.2152
        598.00	     288065.23	     33.181029	     4821.5197
        599.00	     290240.15	     83.857661	     4821.8241
        600.00	     292424.48	     68.897808	     4822.2373
        601.00	     294540.45	     49.219001	     4822.7564
        602.00	     296936.73	     82.765468	     4823.0610
        603.00	     299138.71	     90.503869	     4823.5795
        604.00	     301430.43	     129.53106	     4823.8841
        605.00	     304061.04	     69.363128	     4824.2973
        606.00	     306523.36	     74.269472	     4824.8129
        607.00	     308546.74	     68.141298	     4825.1175
        608.00	     310741.65	     99.957763	     4825.5306
        609.00	     313771.95	     128.70285	     4826.0434
        610.00	     316486.86	     159.60676	     4826.3479
        611.00	     318594.34	     101.71652	     4826.7611
        612.00	     321180.02	     122.72112	     4827.2737
        613.00	     323484.86	     48.426395	     4827.5784
        614.00	     325803.66	     148.30894	     4828.0968
        615.00	     328133.14	     163.13518	     4828.4015
        616.00	     330217.59	     53.638757	     4828.8147
        617.00	     332874.80	     180.17358	     4829.3272
        618.00	     335481.23	     215.84787	     4829.6317
        619.00	     337507.86	     244.60269	     4829.9362
        620.00	     339785.39	     81.738329	     4830.3495
        621.00	     342453.29	     271.45900	     4830.8682
        622.00	     344475.44	     274.73092	     4831.1726
        623.00	     346607.57	     305.33812	     4831.4773
        624.00	     348057.90	     85.029380	     4831.8904
        625.00	     350707.57	     317.04834	     4832.4095
        626.00	     352611.96	     358.91117	     4832.7136
        627.00	     354484.88	     386.44416	     4833.0181
        628.00	     354748.66	     96.840990	     4833.4315
        629.00	     357953.61	     430.17219	     4833.9501
        630.00	     358805.76	     458.39922	     4834.2550
        631.00	     359837.69	     516.20158	     4834.5592
        632.00	     359546.11	     87.501589	     4834.9723
        633.00	     362061.68	     627.48918	     4835.4912
        634.00	     361929.19	     648.32555	     4835.7960
        635.00	     361167.45	     687.01408	     4836.1002
        636.00	     359111.14	     135.26015	     4836.5136
        637.00	     360598.45	     841.59169	     4837.0321
        638.00	     359177.75	     877.72559	     4837.3366
        639.00	     357698.61	     873.02751	     4837.6411
        640.00	     353102.78	     197.15672	     4838.0545
        641.00	     353993.96	     1122.0199	     4838.5734
        642.00	     350758.04	     1184.2026	     4838.8779
        643.00	     344708.38	     134.55228	     4839.2910
        644.00	     344976.87	     1215.6709	     4839.8034
        645.00	     341217.73	     1109.2206	     4840.1079
        646.00	     334842.66	     230.60853	     4840.5213
        647.00	     330898.93	     180.87090	     4841.0374
        648.00	     329465.38	     1431.2336	     4841.5495
        649.00	     325449.13	     1321.3058	     4841.8541
        650.00	     318005.91	     173.18851	     4842.2673
        651.00	     316761.03	     1463.8902	     4842.7800
        652.00	     312382.55	     1324.5303	     4843.0843
        653.00	     304464.89	     197.01452	     4843.4976
        654.00	     303015.33	     1503.3501	     4844.0103
        655.00	     297941.72	     1367.8698	     4844.3147
        656.00	     292589.35	     1341.1345	     4844.6191
        657.00	     283858.66	     186.60463	     4845.0325
        658.00	     282475.78	     1359.6398	     4845.5514
        659.00	     276915.98	     1477.7773	     4845.8558
        660.00	     271222.35	     1404.6115	     4846.1603
        661.00	     263116.06	     295.75776	     4846.5735
        662.00	     260601.38	     1509.6331	     4847.0924
        663.00	     255305.92	     1451.7131	     4847.3968
        664.00	     250552.30	     1316.5812	     4847.7014
        665.00	     241124.82	     218.64533	     4848.1144
        666.00	     240208.46	     1370.8347	     4848.6334
        667.00	     231176.68	     323.53074	     4848.9380
        668.00	     229125.86	     1391.7917	     4849.4564
        669.00	     223504.69	     1228.8906	     4849.7612
        670.00	     218721.45	     1233.1335	     4850.0656
        671.00	     210093.69	     165.26805	     4850.4787
        672.00	     207636.81	     1326.5447	     4850.9977
        673.00	     202493.31	     1220.3539	     4851.3020
        674.00	     200323.55	     1304.1373	     4851.7153
        675.00	     189714.83	     239.80408	     4852.0198
        676.00	     187256.40	     1300.4571	     4852.5388
        677.00	     179550.48	     147.69250	     4852.8436
        678.00	     177474.41	     1125.4272	     4853.3618
        679.00	     172451.99	     1193.1484	     4853.6667
        680.00	     164827.64	     160.75191	     4854.0797
        681.00	     163220.12	     1197.6744	     4854.5922
        682.00	     158707.65	     993.89659	     4854.8967
        683.00	     151723.40	     196.11839	     4855.3100
        684.00	     147676.38	     136.67781	     4855.8258
        685.00	     146180.91	     1052.4445	     4856.3351
        686.00	     139060.25	     279.99281	     4856.6399
        687.00	     137363.70	     1056.1990	     4857.1553
        688.00	     133220.00	     961.39595	     4857.4601
        689.00	     127205.69	     175.14660	     4857.8732
        690.00	     125712.85	     963.51994	     4858.3856
        691.00	     122080.20	     896.37984	     4858.6904
        692.00	     118248.02	     810.14673	     4858.9945
        693.00	     112916.83	     208.18448	     4859.4079
        694.00	     112006.05	     784.76251	     4859.9298
        695.00	     108438.26	     856.17603	     4860.2344
        696.00	     103783.52	     189.47440	     4860.6475
        697.00	     102137.04	     773.40123	     4861.1602
        698.00	     98821.401	     714.61890	     4861.4649
        699.00	     96389.223	     673.72749	     4861.7690
        700.00	     92363.820	     218.81252	     4862.1823
        701.00	     90788.684	     643.35783	     4862.7013
        702.00	     86603.712	     219.05257	     4863.0061
        703.00	     85966.218	     622.55408	     4863.5244
        704.00	     83727.015	     567.15583	     4863.8290
        705.00	     79368.393	     197.55105	     4864.2422
        706.00	     77460.767	     165.39968	     4864.7552
        707.00	     76826.697	     591.38592	     4865.2675
        708.00	     74402.523	     509.74426	     4865.5719
        709.00	     71282.670	     197.18095	     4865.9852
        710.00	     70636.493	     481.22830	     4866.4978
        711.00	     68524.700	     590.65311	     4866.8020
        712.00	     67182.107	     583.46649	     4867.1066
        713.00	     64145.078	     160.57935	     4867.5199
        714.00	     63441.440	     503.17509	     4868.0387
        715.00	     60815.915	     198.11711	     4868.3433
        716.00	     60310.095	     527.57455	     4868.8619
        717.00	     58132.494	     223.57566	     4869.1667
        718.00	     57344.408	     422.09518	     4869.6821
        719.00	     55163.186	     179.86903	     4869.9869
        720.00	     54738.894	     349.27168	     4870.5025
        721.00	     53243.311	     381.98718	     4870.8070
        722.00	     51568.717	     202.39921	     4871.2202
        723.00	     51112.471	     364.11998	     4871.7359
        724.00	     49510.225	     359.63798	     4872.0404
        725.00	     47787.048	     138.63667	     4872.4535
        726.00	     47247.350	     289.35504	     4872.9662
        727.00	     46200.104	     326.60982	     4873.2707
        728.00	     44509.782	     150.38286	     4873.6839
        729.00	     43908.816	     324.66000	     4874.1967
        730.00	     43086.926	     309.43846	     4874.5010
        731.00	     42561.202	     289.39037	     4874.9142
        732.00	     40301.292	     223.19949	     4875.2189
        733.00	     40283.349	     309.24877	     4875.7374
        734.00	     39396.225	     321.39344	     4876.0422
        735.00	     37849.352	     164.54786	     4876.4553
        736.00	     37326.909	     268.27611	     4876.9679
        737.00	     36186.647	     183.21412	     4877.2727
        738.00	     35889.254	     230.74544	     4877.7881
        739.00	     35313.530	     198.56667	     4878.0928
        740.00	     33946.205	     132.43604	     4878.5058
        741.00	     33845.470	     287.80993	     4879.0182
        742.00	     33194.228	     162.92015	     4879.3230
        743.00	     32229.736	     186.89746	     4879.7361
        744.00	     31314.101	     221.10475	     4880.2486
        745.00	     30913.455	     179.67519	     4880.5534
        746.00	     30382.787	     244.25302	     4880.8574
        747.00	     29116.589	     117.18876	     4881.2709
        748.00	     29108.565	     312.90685	     4881.7897
        749.00	     28546.098	     269.77117	     4882.0940
        750.00	     27850.795	     162.67915	     4882.3985
        751.00	     26787.032	     154.27282	     4882.8121
        752.00	     26635.611	     176.33936	     4883.3307
        753.00	     25774.181	     91.226588	     4883.6354
        754.00	     25735.824	     234.76109	     4884.1539
        755.00	     24564.389	     154.66351	     4884.4589
        756.00	     24426.018	     158.93788	     4884.9740
        757.00	     24139.601	     217.09574	     4885.2788
        758.00	     23087.457	     139.44055	     4885.6919
        759.00	     23290.403	     121.50692	     4886.2046
        760.00	     22905.389	     179.05102	     4886.5089
        761.00	     22275.574	     177.14844	     4886.9223
        762.00	     22004.119	     115.87435	     4887.4350
        763.00	     21664.272	     162.28441	     4887.7392
        764.00	     20891.902	     160.10255	     4888.1525
        765.00	     20561.875	     190.97729	     4888.6651
        766.00	     20130.312	     108.89016	     4888.9695
        767.00	     19908.150	     51.858627	     4889.3828
        768.00	     19388.531	     232.02850	     4889.8954
        769.00	     18971.197	     187.68849	     4890.1998
        770.00	     18500.125	     87.057485	     4890.6132
        771.00	     18682.245	     173.34338	     4891.1256
        772.00	     17951.030	     131.05113	     4891.4334
        773.00	     17984.720	     120.48138	     4891.9460
        774.00	     17431.987	     188.46994	     4892.2503
        775.00	     17310.446	     159.49159	     4892.6637
        776.00	     16841.076	     122.49879	     4893.1762
        777.00	     16653.031	     217.62143	     4893.4810
        778.00	     16348.226	     205.40028	     4893.7852
        779.00	     15776.497	     163.61563	     4894.1985
        780.00	     15947.797	     171.51307	     4894.7175
        781.00	     16016.926	     178.39433	     4895.0217
        782.00	     15541.005	     110.63574	     4895.3261
        783.00	     15118.685	     154.64488	     4895.7395
        784.00	     15360.271	     150.38314	     4896.2586
        785.00	     14541.336	     121.84205	     4896.5632
        786.00	     14378.380	     169.05345	     4897.0815
        787.00	     14715.462	     141.11882	     4897.3861
        788.00	     14233.936	     125.03893	     4897.6906
        789.00	     13790.892	     109.42349	     4898.1039
        790.00	     13953.539	     111.36428	     4898.6226
        791.00	     13799.472	     120.97202	     4898.9271
        792.00	     13496.037	     120.52505	     4899.2316
        793.00	     13729.092	     124.83692	     4899.5514
        794.00	     12987.200	     177.50869	     4899.9646
        795.00	     13077.052	     141.09525	     4900.4745
        796.00	     12922.530	     129.47073	     4900.7788
        797.00	     12058.063	     119.12628	     4901.0831
        798.00	     11537.129	     184.04413	     4901.4965
        799.00	     11145.051	     58.291879	     4902.0154
        800.00	     10398.411	     110.11494	     4902.3198
