Sample:	
Run Date:	20-02-2020 14:25:14
Operator:	Hitachi spectro
Comment:	

Instrument
Model:	U-2010 Spectrophotometer
Serial Number:	9709-014
ROM Version:	2550 00

Instrument Parameters
Measurement Type:	Wavelength Scan
Data Mode:	Abs
Starting Wavelength:	700.0 nm
Ending Wavelength:	200.0 nm
Scan Speed:	100 nm/min
Sampling Interval:	1.0 nm
Slit Width:	2 nm
Lamp Change:	370.0 nm
Baseline Correction:	System
Response:	Medium

Peak Integration
Area Method:	Rectangular
Threshold:	10.0% based on 1 highest peaks
Peak Width:	10.0 nm
Peaks
Peak #	Start (nm)	Apex (nm)	End (nm)	Height (Abs)	Area (Abs*nm)
1	249.0	235.0	202.0	2.0034	51.7904

Data Points
nm	Abs
600.0	0.0192
599.0	0.0203
598.0	0.0215
597.0	0.0229
596.0	0.0241
595.0	0.0254
594.0	0.0268
593.0	0.0284
592.0	0.0300
591.0	0.0317
590.0	0.0335
589.0	0.0351
588.0	0.0367
587.0	0.0382
586.0	0.0398
585.0	0.0416
584.0	0.0434
583.0	0.0451
582.0	0.0468
581.0	0.0483
580.0	0.0498
579.0	0.0515
578.0	0.0532
577.0	0.0547
576.0	0.0563
575.0	0.0577
574.0	0.0591
573.0	0.0604
572.0	0.0615
571.0	0.0626
570.0	0.0640
569.0	0.0653
568.0	0.0663
567.0	0.0672
566.0	0.0682
565.0	0.0692
564.0	0.0699
563.0	0.0704
562.0	0.0710
561.0	0.0718
560.0	0.0722
559.0	0.0725
558.0	0.0729
557.0	0.0731
556.0	0.0736
555.0	0.0738
554.0	0.0738
553.0	0.0738
552.0	0.0738
551.0	0.0738
550.0	0.0738
549.0	0.0736
548.0	0.0733
547.0	0.0730
546.0	0.0727
545.0	0.0725
544.0	0.0723
543.0	0.0719
542.0	0.0716
541.0	0.0711
540.0	0.0706
539.0	0.0700
538.0	0.0695
537.0	0.0691
536.0	0.0685
535.0	0.0679
534.0	0.0673
533.0	0.0666
532.0	0.0658
531.0	0.0652
530.0	0.0644
529.0	0.0636
528.0	0.0627
527.0	0.0619
526.0	0.0610
525.0	0.0603
524.0	0.0594
523.0	0.0586
522.0	0.0576
521.0	0.0568
520.0	0.0556
519.0	0.0546
518.0	0.0536
517.0	0.0527
516.0	0.0517
515.0	0.0508
514.0	0.0497
513.0	0.0487
512.0	0.0476
511.0	0.0464
510.0	0.0453
509.0	0.0444
508.0	0.0434
507.0	0.0425
506.0	0.0413
505.0	0.0403
504.0	0.0394
503.0	0.0383
502.0	0.0374
501.0	0.0364
500.0	0.0353
499.0	0.0344
498.0	0.0334
497.0	0.0324
496.0	0.0314
495.0	0.0308
494.0	0.0298
493.0	0.0290
492.0	0.0280
491.0	0.0271
490.0	0.0263
489.0	0.0255
488.0	0.0249
487.0	0.0241
486.0	0.0232
485.0	0.0224
484.0	0.0217
483.0	0.0210
482.0	0.0203
481.0	0.0195
480.0	0.0189
479.0	0.0181
478.0	0.0174
477.0	0.0170
476.0	0.0164
475.0	0.0157
474.0	0.0150
473.0	0.0144
472.0	0.0140
471.0	0.0135
470.0	0.0129
469.0	0.0122
468.0	0.0117
467.0	0.0112
466.0	0.0109
465.0	0.0104
464.0	0.0100
463.0	0.0095
462.0	0.0092
461.0	0.0088
460.0	0.0082
459.0	0.0079
458.0	0.0078
457.0	0.0075
456.0	0.0070
455.0	0.0067
454.0	0.0065
453.0	0.0064
452.0	0.0061
451.0	0.0059
450.0	0.0056
449.0	0.0052
448.0	0.0050
447.0	0.0048
446.0	0.0046
445.0	0.0044
444.0	0.0041
443.0	0.0038
442.0	0.0037
441.0	0.0037
440.0	0.0036
439.0	0.0035
438.0	0.0033
437.0	0.0032
436.0	0.0030
435.0	0.0029
434.0	0.0029
433.0	0.0029
432.0	0.0027
431.0	0.0026
430.0	0.0026
429.0	0.0026
428.0	0.0024
427.0	0.0024
426.0	0.0024
425.0	0.0021
424.0	0.0020
423.0	0.0020
422.0	0.0020
421.0	0.0020
420.0	0.0020
419.0	0.0020
418.0	0.0020
417.0	0.0020
416.0	0.0019
415.0	0.0020
414.0	0.0020
413.0	0.0020
412.0	0.0020
411.0	0.0020
410.0	0.0019
409.0	0.0019
408.0	0.0019
407.0	0.0020
406.0	0.0020
405.0	0.0020
404.0	0.0020
403.0	0.0020
402.0	0.0020
401.0	0.0020
400.0	0.0020
399.0	0.0020
398.0	0.0020
397.0	0.0021
396.0	0.0022
395.0	0.0022
394.0	0.0022
393.0	0.0022
392.0	0.0022
391.0	0.0022
390.0	0.0022
389.0	0.0021
388.0	0.0020
387.0	0.0021
386.0	0.0022
385.0	0.0021
384.0	0.0021
383.0	0.0022
382.0	0.0022
381.0	0.0005
380.0	-0.0029
379.0	-0.0048
378.0	-0.0048
377.0	-0.0048
376.0	-0.0051
375.0	-0.0052
374.0	-0.0054
373.0	-0.0054
372.0	-0.0053
371.0	-0.0026
370.0	0.0030
369.0	0.0062
368.0	0.0061
367.0	0.0060
366.0	0.0059
365.0	0.0059
364.0	0.0061
363.0	0.0064
362.0	0.0064
361.0	0.0062
360.0	0.0062
359.0	0.0064
358.0	0.0065
357.0	0.0065
356.0	0.0065
355.0	0.0065
354.0	0.0065
353.0	0.0067
352.0	0.0070
351.0	0.0070
350.0	0.0070
349.0	0.0070
348.0	0.0072
347.0	0.0070
346.0	0.0068
345.0	0.0070
344.0	0.0073
343.0	0.0076
342.0	0.0076
341.0	0.0076
340.0	0.0075
339.0	0.0077
338.0	0.0078
337.0	0.0079
336.0	0.0082
335.0	0.0086
334.0	0.0089
333.0	0.0092
332.0	0.0093
331.0	0.0095
330.0	0.0099
329.0	0.0103
328.0	0.0106
327.0	0.0110
326.0	0.0114
325.0	0.0119
324.0	0.0122
323.0	0.0126
322.0	0.0129
321.0	0.0135
320.0	0.0141
319.0	0.0146
318.0	0.0150
317.0	0.0154
316.0	0.0160
315.0	0.0164
314.0	0.0167
313.0	0.0170
312.0	0.0170
311.0	0.0171
310.0	0.0173
309.0	0.0173
308.0	0.0174
307.0	0.0175
306.0	0.0174
305.0	0.0173
304.0	0.0171
303.0	0.0167
302.0	0.0166
301.0	0.0164
300.0	0.0164
299.0	0.0163
298.0	0.0161
297.0	0.0159
296.0	0.0156
295.0	0.0153
294.0	0.0152
293.0	0.0150
292.0	0.0149
291.0	0.0149
290.0	0.0149
289.0	0.0150
288.0	0.0152
287.0	0.0157
286.0	0.0161
285.0	0.0166
284.0	0.0176
283.0	0.0186
282.0	0.0197
281.0	0.0213
280.0	0.0233
279.0	0.0255
278.0	0.0281
277.0	0.0309
276.0	0.0337
275.0	0.0368
274.0	0.0402
273.0	0.0437
272.0	0.0472
271.0	0.0508
270.0	0.0539
269.0	0.0564
268.0	0.0581
267.0	0.0591
266.0	0.0594
265.0	0.0593
264.0	0.0587
263.0	0.0579
262.0	0.0570
261.0	0.0563
260.0	0.0558
259.0	0.0561
258.0	0.0569
257.0	0.0581
256.0	0.0602
255.0	0.0640
254.0	0.0694
253.0	0.0774
252.0	0.0891
251.0	0.1057
250.0	0.1291
249.0	0.1612
248.0	0.2048
247.0	0.2629
246.0	0.3409
245.0	0.4444
244.0	0.5794
243.0	0.7557
242.0	0.9838
241.0	1.2716
240.0	1.6216
239.0	2.0088
238.0	2.3768
237.0	2.6198
236.0	2.6576
235.0	2.6990
234.0	2.6990
233.0	2.6990
232.0	2.6990
231.0	2.6990
230.0	2.6990
229.0	2.6990
228.0	2.6990
227.0	2.6990
226.0	2.6990
225.0	2.6576
224.0	2.6576
223.0	2.6576
222.0	2.6576
221.0	2.6576
220.0	2.6576
219.0	2.6198
218.0	2.6198
217.0	2.5686
216.0	2.5686
215.0	2.5376
214.0	2.5376
213.0	2.4949
212.0	2.4685
211.0	2.4318
210.0	2.4089
209.0	2.3768
208.0	2.3565
207.0	2.3372
206.0	2.2924
205.0	2.2518
204.0	2.2007
203.0	2.1675
202.0	2.1192
201.0	2.0706
200.0	2.0315
