Sample:	
Run Date:	20-02-2020 21:16:44
Operator:	Hitachi spectro
Comment:	

Instrument
Model:	U-2010 Spectrophotometer
Serial Number:	9709-014
ROM Version:	2550 00

Instrument Parameters
Measurement Type:	Wavelength Scan
Data Mode:	Abs
Starting Wavelength:	700.0 nm
Ending Wavelength:	200.0 nm
Scan Speed:	100 nm/min
Sampling Interval:	1.0 nm
Slit Width:	2 nm
Lamp Change:	370.0 nm
Baseline Correction:	System
Response:	Medium

Peak Integration
Area Method:	Rectangular
Threshold:	10.0% based on 1 highest peaks
Peak Width:	10.0 nm
Peaks
Peak #	Start (nm)	Apex (nm)	End (nm)	Height (Abs)	Area (Abs*nm)
1	249.0	235.0	202.0	2.0099	52.1860

Data Points
nm	Abs
600.0	0.0194
599.0	0.0206
598.0	0.0220
597.0	0.0234
596.0	0.0249
595.0	0.0263
594.0	0.0278
593.0	0.0293
592.0	0.0309
591.0	0.0326
590.0	0.0344
589.0	0.0364
588.0	0.0380
587.0	0.0396
586.0	0.0415
585.0	0.0434
584.0	0.0450
583.0	0.0466
582.0	0.0484
581.0	0.0503
580.0	0.0521
579.0	0.0539
578.0	0.0556
577.0	0.0571
576.0	0.0587
575.0	0.0602
574.0	0.0616
573.0	0.0631
572.0	0.0644
571.0	0.0657
570.0	0.0671
569.0	0.0684
568.0	0.0695
567.0	0.0705
566.0	0.0716
565.0	0.0725
564.0	0.0734
563.0	0.0742
562.0	0.0749
561.0	0.0756
560.0	0.0762
559.0	0.0765
558.0	0.0768
557.0	0.0771
556.0	0.0773
555.0	0.0776
554.0	0.0778
553.0	0.0781
552.0	0.0782
551.0	0.0782
550.0	0.0779
549.0	0.0778
548.0	0.0776
547.0	0.0773
546.0	0.0771
545.0	0.0767
544.0	0.0764
543.0	0.0759
542.0	0.0756
541.0	0.0750
540.0	0.0745
539.0	0.0742
538.0	0.0737
537.0	0.0730
536.0	0.0724
535.0	0.0718
534.0	0.0710
533.0	0.0703
532.0	0.0695
531.0	0.0688
530.0	0.0680
529.0	0.0672
528.0	0.0663
527.0	0.0655
526.0	0.0644
525.0	0.0635
524.0	0.0625
523.0	0.0616
522.0	0.0608
521.0	0.0597
520.0	0.0587
519.0	0.0577
518.0	0.0568
517.0	0.0556
516.0	0.0545
515.0	0.0535
514.0	0.0525
513.0	0.0512
512.0	0.0502
511.0	0.0490
510.0	0.0478
509.0	0.0466
508.0	0.0455
507.0	0.0444
506.0	0.0434
505.0	0.0423
504.0	0.0412
503.0	0.0403
502.0	0.0394
501.0	0.0382
500.0	0.0369
499.0	0.0359
498.0	0.0348
497.0	0.0340
496.0	0.0330
495.0	0.0321
494.0	0.0311
493.0	0.0302
492.0	0.0293
491.0	0.0285
490.0	0.0276
489.0	0.0267
488.0	0.0259
487.0	0.0251
486.0	0.0242
485.0	0.0234
484.0	0.0226
483.0	0.0219
482.0	0.0211
481.0	0.0203
480.0	0.0195
479.0	0.0189
478.0	0.0182
477.0	0.0174
476.0	0.0169
475.0	0.0163
474.0	0.0157
473.0	0.0150
472.0	0.0143
471.0	0.0138
470.0	0.0131
469.0	0.0125
468.0	0.0119
467.0	0.0114
466.0	0.0110
465.0	0.0106
464.0	0.0102
463.0	0.0097
462.0	0.0093
461.0	0.0090
460.0	0.0085
459.0	0.0080
458.0	0.0076
457.0	0.0072
456.0	0.0067
455.0	0.0065
454.0	0.0064
453.0	0.0061
452.0	0.0056
451.0	0.0052
450.0	0.0049
449.0	0.0047
448.0	0.0044
447.0	0.0041
446.0	0.0038
445.0	0.0037
444.0	0.0035
443.0	0.0032
442.0	0.0030
441.0	0.0029
440.0	0.0027
439.0	0.0026
438.0	0.0024
437.0	0.0021
436.0	0.0020
435.0	0.0020
434.0	0.0020
433.0	0.0018
432.0	0.0017
431.0	0.0016
430.0	0.0014
429.0	0.0012
428.0	0.0012
427.0	0.0012
426.0	0.0010
425.0	0.0009
424.0	0.0009
423.0	0.0009
422.0	0.0009
421.0	0.0007
420.0	0.0005
419.0	0.0005
418.0	0.0005
417.0	0.0005
416.0	0.0005
415.0	0.0005
414.0	0.0005
413.0	0.0005
412.0	0.0005
411.0	0.0005
410.0	0.0005
409.0	0.0005
408.0	0.0005
407.0	0.0005
406.0	0.0005
405.0	0.0005
404.0	0.0005
403.0	0.0005
402.0	0.0005
401.0	0.0005
400.0	0.0005
399.0	0.0005
398.0	0.0005
397.0	0.0005
396.0	0.0005
395.0	0.0005
394.0	0.0005
393.0	0.0005
392.0	0.0005
391.0	0.0005
390.0	0.0005
389.0	0.0005
388.0	0.0005
387.0	0.0005
386.0	0.0005
385.0	0.0005
384.0	0.0005
383.0	0.0005
382.0	0.0005
381.0	-0.0004
380.0	-0.0029
379.0	-0.0046
378.0	-0.0050
377.0	-0.0048
376.0	-0.0045
375.0	-0.0043
374.0	-0.0048
373.0	-0.0050
372.0	-0.0048
371.0	-0.0026
370.0	0.0015
369.0	0.0036
368.0	0.0036
367.0	0.0035
366.0	0.0036
365.0	0.0036
364.0	0.0034
363.0	0.0035
362.0	0.0034
361.0	0.0032
360.0	0.0031
359.0	0.0032
358.0	0.0034
357.0	0.0035
356.0	0.0033
355.0	0.0033
354.0	0.0035
353.0	0.0035
352.0	0.0033
351.0	0.0033
350.0	0.0034
349.0	0.0033
348.0	0.0033
347.0	0.0035
346.0	0.0035
345.0	0.0035
344.0	0.0035
343.0	0.0035
342.0	0.0035
341.0	0.0035
340.0	0.0035
339.0	0.0036
338.0	0.0036
337.0	0.0037
336.0	0.0039
335.0	0.0041
334.0	0.0044
333.0	0.0047
332.0	0.0049
331.0	0.0051
330.0	0.0056
329.0	0.0059
328.0	0.0062
327.0	0.0066
326.0	0.0070
325.0	0.0074
324.0	0.0077
323.0	0.0082
322.0	0.0088
321.0	0.0093
320.0	0.0095
319.0	0.0100
318.0	0.0104
317.0	0.0110
316.0	0.0116
315.0	0.0119
314.0	0.0122
313.0	0.0125
312.0	0.0126
311.0	0.0127
310.0	0.0129
309.0	0.0131
308.0	0.0131
307.0	0.0132
306.0	0.0135
305.0	0.0135
304.0	0.0135
303.0	0.0131
302.0	0.0129
301.0	0.0128
300.0	0.0128
299.0	0.0127
298.0	0.0126
297.0	0.0124
296.0	0.0122
295.0	0.0122
294.0	0.0122
293.0	0.0122
292.0	0.0122
291.0	0.0122
290.0	0.0125
289.0	0.0129
288.0	0.0135
287.0	0.0141
286.0	0.0149
285.0	0.0157
284.0	0.0169
283.0	0.0182
282.0	0.0197
281.0	0.0217
280.0	0.0240
279.0	0.0267
278.0	0.0295
277.0	0.0326
276.0	0.0360
275.0	0.0396
274.0	0.0434
273.0	0.0472
272.0	0.0511
271.0	0.0549
270.0	0.0581
269.0	0.0609
268.0	0.0630
267.0	0.0643
266.0	0.0647
265.0	0.0646
264.0	0.0640
263.0	0.0631
262.0	0.0622
261.0	0.0615
260.0	0.0611
259.0	0.0610
258.0	0.0614
257.0	0.0627
256.0	0.0651
255.0	0.0686
254.0	0.0740
253.0	0.0822
252.0	0.0937
251.0	0.1102
250.0	0.1331
249.0	0.1648
248.0	0.2080
247.0	0.2662
246.0	0.3433
245.0	0.4450
244.0	0.5797
243.0	0.7562
242.0	0.9838
241.0	1.2716
240.0	1.6216
239.0	2.0088
238.0	2.3565
237.0	2.5686
236.0	2.6576
235.0	2.6990
234.0	2.6990
233.0	2.6990
232.0	2.6990
231.0	2.6990
230.0	2.6990
229.0	2.6990
228.0	2.6576
227.0	2.6576
226.0	2.6576
225.0	2.6576
224.0	2.6576
223.0	2.6576
222.0	2.6198
221.0	2.6576
220.0	2.6576
219.0	2.6198
218.0	2.6198
217.0	2.5686
216.0	2.5686
215.0	2.5376
214.0	2.5376
213.0	2.4949
212.0	2.4685
211.0	2.4318
210.0	2.4318
209.0	2.4089
208.0	2.3768
207.0	2.3098
206.0	2.2676
205.0	2.2518
204.0	2.2147
203.0	2.1487
202.0	2.0809
201.0	2.0315
200.0	2.0000
