Title=200220_em_NaOH-MeCN_2,0uM_NRA1
Comment=
Signature=ISS_Experiment_Ver_1_0
Timestamp=Thu Feb 20 21:31:59 2020
Product=Vinci2
SoftwareVersion=BETA.2.4
BuildNumber=234
RealTimeStart=12955.3771692

AcquisitionType=Photon Counting
AcquisitionFormat=L
AcquisitionSide=Right
Detector Gains=(0.0, 0.0)

Measurable=Intensity
MaxIterations=10

RightEmissionWavelengthBandwidth=8.0
ExcitationWavelengthBandwidth=8.0
Visualization=Y:Intensity,X:EmissionWavelength,PlotType:2D


EmissionWavelength=type:numeric,unit:nm,from:400.0,to:800.0,step:1.0
ExcitationWavelength=type:numeric,unit:nm,fixed:552.0

Space=EmissionWavelength
Columns=EmissionWavelength,Intensity,IntensityStdError,RealTime
[Data]
        400.00	     208.21744	     3.9408490	     12958.365
        401.00	     207.44261	     3.2201957	     12958.934
        402.00	     201.27511	     2.6941838	     12959.239
        403.00	     204.59153	     3.2508827	     12959.652
        404.00	     197.09728	     2.3961114	     12960.164
        405.00	     203.02243	     3.9598267	     12960.469
        406.00	     203.58926	     2.9888954	     12960.882
        407.00	     201.74866	     4.0836503	     12961.186
        408.00	     200.01855	     3.7476690	     12961.702
        409.00	     200.00434	     2.7411900	     12962.007
        410.00	     196.60962	     2.4266456	     12962.420
        411.00	     197.77354	     1.3023955	     12962.932
        412.00	     195.39330	     3.2774805	     12963.237
        413.00	     193.75663	     3.6488876	     12963.650
        414.00	     189.75711	     3.1922625	     12964.163
        415.00	     198.14324	     3.5256970	     12964.467
        416.00	     191.64402	     2.8622909	     12964.771
        417.00	     194.30531	     2.9253363	     12965.185
        418.00	     193.14517	     3.3794348	     12965.704
        419.00	     189.51476	     3.3407521	     12966.008
        420.00	     185.65543	     1.5085053	     12966.421
        421.00	     195.00119	     4.0783896	     12966.934
        422.00	     188.26395	     3.1762780	     12967.239
        423.00	     191.00509	     4.3206527	     12967.754
        424.00	     192.12343	     1.5900747	     12968.270
        425.00	     192.48634	     3.7007708	     12968.575
        426.00	     192.78379	     2.8203270	     12969.090
        427.00	     187.95540	     1.5309007	     12969.395
        428.00	     194.12945	     2.2973382	     12969.808
        429.00	     197.23636	     1.5764766	     12970.321
        430.00	     195.39610	     3.3211155	     12970.625
        431.00	     191.42206	     2.3539358	     12971.140
        432.00	     197.82760	     1.7465056	     12971.445
        433.00	     190.47480	     3.8019166	     12971.964
        434.00	     198.87564	     3.6277498	     12972.269
        435.00	     196.38116	     3.3737820	     12972.784
        436.00	     197.36652	     3.2647572	     12973.089
        437.00	     198.91821	     1.6576492	     12973.393
        438.00	     199.30992	     3.0730361	     12973.806
        439.00	     204.30174	     2.7335623	     12974.325
        440.00	     200.06066	     2.1920773	     12974.630
        441.00	     199.89129	     3.7191911	     12974.934
        442.00	     195.37191	     4.1361445	     12975.347
        443.00	     196.84853	     3.5469027	     12975.866
        444.00	     200.10820	     2.8811971	     12976.171
        445.00	     201.98011	     4.6193278	     12976.475
        446.00	     207.68365	     2.3749919	     12976.888
        447.00	     204.20048	     3.3579069	     12977.193
        448.00	     201.95529	     3.6435881	     12977.715
        449.00	     201.23274	     2.7863727	     12978.019
        450.00	     206.36561	     5.4394684	     12978.433
        451.00	     206.34830	     3.0406902	     12978.945
        452.00	     208.26727	     4.3896806	     12979.250
        453.00	     212.29206	     4.9172466	     12979.663
        454.00	     211.60845	     2.3013663	     12980.175
        455.00	     212.83260	     2.7960839	     12980.480
        456.00	     222.57116	     3.9322710	     12980.995
        457.00	     219.15397	     4.1494207	     12981.300
        458.00	     223.42482	     3.9800003	     12981.605
        459.00	     226.57265	     2.6861410	     12982.018
        460.00	     224.96855	     1.8010044	     12982.537
        461.00	     227.40763	     1.2594572	     12982.841
        462.00	     232.58312	     4.2055955	     12983.146
        463.00	     239.86032	     3.3508836	     12983.667
        464.00	     238.74674	     4.8677093	     12983.972
        465.00	     232.42572	     3.6801778	     12984.385
        466.00	     235.49274	     4.2802591	     12984.898
        467.00	     238.96041	     2.6955553	     12985.202
        468.00	     242.07640	     4.4020332	     12985.616
        469.00	     247.46282	     4.3560141	     12986.128
        470.00	     240.72494	     2.0451888	     12986.433
        471.00	     244.28249	     3.8484860	     12986.846
        472.00	     249.11560	     4.2543480	     12987.150
        473.00	     246.19412	     3.6204268	     12987.666
        474.00	     253.00893	     4.4377485	     12987.971
        475.00	     254.45804	     4.6703716	     12988.384
        476.00	     254.58423	     3.7618497	     12988.896
        477.00	     258.23897	     3.1424381	     12989.201
        478.00	     256.91842	     3.1839515	     12989.717
        479.00	     263.04838	     4.0112224	     12990.021
        480.00	     268.18535	     2.8265802	     12990.434
        481.00	     272.60777	     3.0445019	     12990.950
        482.00	     262.84861	     5.1746033	     12991.255
        483.00	     275.46054	     6.2655001	     12991.770
        484.00	     279.63147	     2.9363708	     12992.075
        485.00	     289.54011	     3.9758821	     12992.488
        486.00	     291.56216	     4.0586253	     12993.000
        487.00	     294.03313	     5.3263660	     12993.305
        488.00	     295.79449	     5.7364199	     12993.718
        489.00	     293.95906	     5.5098558	     12994.231
        490.00	     302.32424	     4.5664923	     12994.536
        491.00	     296.05760	     4.4036985	     12995.051
        492.00	     309.22501	     3.8059160	     12995.355
        493.00	     315.54918	     2.5188074	     12995.769
        494.00	     318.15676	     3.2733808	     12996.282
        495.00	     316.05685	     4.1830512	     12996.794
        496.00	     322.42720	     4.2388235	     12997.098
        497.00	     330.99775	     4.1778068	     12997.512
        498.00	     335.55757	     6.9887909	     12998.025
        499.00	     358.58390	     5.4713876	     12998.537
        500.00	     369.49782	     4.6049088	     12998.842
        501.00	     385.48287	     4.0838858	     12999.254
        502.00	     395.06736	     4.9962500	     12999.767
        503.00	     413.23376	     4.8751170	     13000.072
        504.00	     429.97551	     6.4180825	     13000.376
        505.00	     452.30975	     6.2397924	     13000.789
        506.00	     467.91392	     5.1788940	     13001.308
        507.00	     485.68331	     5.2483936	     13001.613
        508.00	     485.37943	     6.0148738	     13002.135
        509.00	     510.83975	     5.2414596	     13002.440
        510.00	     518.05356	     5.6671078	     13002.958
        511.00	     532.41717	     7.3725459	     13003.262
        512.00	     534.79834	     5.0216068	     13003.676
        513.00	     552.16240	     7.6086235	     13004.188
        514.00	     565.69218	     6.8896052	     13004.493
        515.00	     580.44894	     6.6374950	     13004.906
        516.00	     590.79098	     8.8630045	     13005.418
        517.00	     616.99205	     8.2891929	     13005.724
        518.00	     630.03265	     8.3104225	     13006.242
        519.00	     668.79960	     8.1537061	     13006.547
        520.00	     678.57586	     7.8994004	     13007.062
        521.00	     709.90481	     6.9334309	     13007.367
        522.00	     740.36921	     7.5823368	     13007.780
        523.00	     778.30533	     8.9007147	     13008.292
        524.00	     819.61104	     13.780762	     13008.597
        525.00	     883.81307	     7.4131076	     13009.010
        526.00	     920.22481	     10.623000	     13009.523
        527.00	     1005.8230	     9.3439814	     13009.827
        528.00	     1054.9507	     11.372101	     13010.343
        529.00	     1120.8710	     15.676860	     13010.648
        530.00	     1250.6715	     7.1844428	     13011.061
        531.00	     1308.5076	     16.978517	     13011.573
        532.00	     1539.9953	     17.107985	     13011.878
        533.00	     1691.2684	     34.466717	     13012.393
        534.00	     2005.0711	     53.629223	     13012.698
        535.00	     2606.7436	     12.914205	     13013.111
        536.00	     2996.1010	     99.691654	     13013.627
        537.00	     3935.9887	     10.592494	     13013.932
        538.00	     4500.3804	     138.98351	     13014.447
        539.00	     5451.8846	     152.32264	     13014.752
        540.00	     6550.4734	     186.33944	     13015.056
        541.00	     8381.9536	     27.773896	     13015.469
        542.00	     9141.2467	     212.48465	     13015.988
        543.00	     10652.472	     208.29500	     13016.293
        544.00	     12752.166	     24.736876	     13016.706
        545.00	     13767.627	     240.84388	     13017.219
        546.00	     16031.175	     30.897609	     13017.524
        547.00	     16949.066	     255.63354	     13018.039
        548.00	     18774.889	     229.25174	     13018.344
        549.00	     20536.205	     244.01912	     13018.648
        550.00	     22666.793	     55.300397	     13019.061
        551.00	     23517.414	     211.01679	     13019.580
        552.00	     24999.616	     203.78354	     13019.884
        553.00	     25963.055	     151.71657	     13020.189
        554.00	     27422.502	     55.132426	     13020.602
        555.00	     28102.439	     142.48494	     13021.121
        556.00	     29121.299	     149.11849	     13021.425
        557.00	     30321.962	     43.216230	     13021.730
        558.00	     31189.904	     130.42666	     13022.252
        559.00	     32130.763	     133.81431	     13022.556
        560.00	     33782.100	     75.129618	     13022.969
        561.00	     35080.156	     37.575376	     13023.485
        562.00	     37055.363	     95.857215	     13023.998
        563.00	     38415.443	     301.68087	     13024.510
        564.00	     41722.833	     58.232034	     13024.818
        565.00	     43711.572	     445.80958	     13025.334
        566.00	     48312.822	     71.342362	     13025.639
        567.00	     50897.402	     553.36300	     13026.157
        568.00	     55354.664	     641.88957	     13026.461
        569.00	     62144.993	     49.464871	     13026.875
        570.00	     65725.589	     845.70361	     13027.387
        571.00	     72081.354	     928.80505	     13027.692
        572.00	     78942.753	     960.94333	     13027.996
        573.00	     88457.023	     109.09417	     13028.409
        574.00	     93476.299	     1112.8009	     13028.928
        575.00	     101932.99	     1193.5818	     13029.233
        576.00	     110625.09	     1197.1731	     13029.537
        577.00	     122193.87	     89.681265	     13029.950
        578.00	     128337.55	     1289.6119	     13030.469
        579.00	     141163.95	     124.75170	     13030.774
        580.00	     147715.63	     1308.5129	     13031.293
        581.00	     157297.52	     1332.6409	     13031.597
        582.00	     169494.89	     69.844811	     13032.010
        583.00	     175873.89	     1262.2208	     13032.526
        584.00	     187996.57	     71.649198	     13032.831
        585.00	     193608.63	     1141.3072	     13033.346
        586.00	     202339.11	     1038.0708	     13033.651
        587.00	     212479.84	     84.870769	     13034.064
        588.00	     217161.04	     899.95110	     13034.576
        589.00	     224436.91	     779.72314	     13034.881
        590.00	     232389.38	     66.375934	     13035.294
        591.00	     236391.09	     661.48051	     13035.807
        592.00	     242428.01	     555.21533	     13036.111
        593.00	     248381.62	     43.697617	     13036.524
        594.00	     253034.71	     57.089127	     13037.037
        595.00	     256490.06	     395.33561	     13037.553
        596.00	     260997.66	     330.17812	     13037.858
        597.00	     266098.76	     68.376067	     13038.271
        598.00	     269135.11	     293.82145	     13038.783
        599.00	     273064.30	     260.61962	     13039.088
        600.00	     277456.68	     54.922329	     13039.393
        601.00	     280544.22	     221.44539	     13039.914
        602.00	     284486.02	     198.73147	     13040.219
        603.00	     287633.53	     128.05564	     13040.632
        604.00	     291911.19	     46.040214	     13040.936
        605.00	     295363.33	     162.67870	     13041.452
        606.00	     299245.06	     70.865987	     13041.757
        607.00	     302350.51	     148.95126	     13042.272
        608.00	     305704.32	     101.35788	     13042.576
        609.00	     309760.74	     53.495245	     13042.990
        610.00	     313192.09	     111.20873	     13043.503
        611.00	     316737.22	     105.90562	     13043.807
        612.00	     320393.43	     80.099235	     13044.220
        613.00	     324061.30	     85.202000	     13044.733
        614.00	     327367.99	     74.355271	     13045.038
        615.00	     331052.65	     64.661556	     13045.553
        616.00	     334827.82	     110.97057	     13045.858
        617.00	     338296.71	     59.530622	     13046.373
        618.00	     342467.54	     96.327242	     13046.681
        619.00	     345953.26	     49.548482	     13047.197
        620.00	     350291.16	     81.969563	     13047.501
        621.00	     354274.42	     77.740675	     13047.914
        622.00	     358048.54	     73.245504	     13048.430
        623.00	     362294.56	     52.852748	     13048.735
        624.00	     366137.02	     94.731574	     13049.148
        625.00	     370282.56	     75.586844	     13049.660
        626.00	     374651.23	     68.985353	     13049.965
        627.00	     379125.32	     79.349956	     13050.269
        628.00	     382471.37	     115.20847	     13050.682
        629.00	     387488.92	     72.886955	     13051.201
        630.00	     391720.41	     108.16300	     13051.506
        631.00	     396270.03	     112.71939	     13052.025
        632.00	     400612.07	     112.00928	     13052.329
        633.00	     405691.71	     84.521787	     13052.848
        634.00	     409959.18	     124.93495	     13053.153
        635.00	     413768.49	     30.141503	     13053.566
        636.00	     418682.44	     83.750302	     13054.078
        637.00	     423637.20	     129.39502	     13054.594
        638.00	     428025.75	     160.64243	     13054.899
        639.00	     432554.17	     82.674908	     13055.312
        640.00	     436783.64	     116.44683	     13055.825
        641.00	     442172.67	     150.79581	     13056.340
        642.00	     446668.23	     229.04822	     13056.645
        643.00	     450425.79	     122.66467	     13057.058
        644.00	     455294.28	     212.87395	     13057.570
        645.00	     459825.22	     273.07716	     13057.875
        646.00	     464310.07	     114.17642	     13058.288
        647.00	     468791.72	     56.209845	     13058.801
        648.00	     473425.97	     294.29963	     13059.313
        649.00	     477023.95	     94.438367	     13059.618
        650.00	     482279.44	     312.67864	     13060.137
        651.00	     487271.96	     360.18517	     13060.441
        652.00	     490971.87	     87.159605	     13060.854
        653.00	     496657.69	     421.27294	     13061.370
        654.00	     500859.34	     396.41202	     13061.675
        655.00	     503600.43	     153.73633	     13062.088
        656.00	     508202.30	     149.71866	     13062.601
        657.00	     512271.36	     117.60396	     13063.116
        658.00	     517414.50	     476.78918	     13063.626
        659.00	     521220.46	     422.30823	     13063.930
        660.00	     524172.13	     415.24422	     13064.235
        661.00	     525872.21	     153.39704	     13064.648
        662.00	     528589.78	     156.06848	     13065.167
        663.00	     533928.08	     687.36938	     13065.679
        664.00	     536995.09	     790.01244	     13065.984
        665.00	     536578.38	     208.86600	     13066.288
        666.00	     541742.74	     928.64179	     13066.810
        667.00	     542404.24	     212.43133	     13067.115
        668.00	     546493.23	     931.50861	     13067.630
        669.00	     546396.55	     311.56074	     13067.935
        670.00	     550635.33	     1181.6666	     13068.454
        671.00	     550525.42	     1248.6979	     13068.758
        672.00	     550836.64	     1214.9767	     13069.063
        673.00	     549416.52	     265.09517	     13069.476
        674.00	     552659.11	     1266.8979	     13069.995
        675.00	     548505.60	     305.97189	     13070.299
        676.00	     550371.14	     1600.3079	     13070.818
        677.00	     545529.72	     264.45139	     13071.123
        678.00	     547763.64	     1576.1293	     13071.638
        679.00	     541293.38	     265.83919	     13071.943
        680.00	     541927.92	     1714.6941	     13072.462
        681.00	     540531.09	     1754.5646	     13072.766
        682.00	     532941.47	     295.79233	     13073.179
        683.00	     534020.68	     1853.6720	     13073.692
        684.00	     528941.58	     1643.1459	     13073.996
        685.00	     522066.16	     492.88980	     13074.410
        686.00	     521090.99	     1976.9155	     13074.922
        687.00	     516391.42	     2100.5713	     13075.227
        688.00	     507651.14	     290.21531	     13075.640
        689.00	     502469.05	     320.35287	     13076.153
        690.00	     502906.39	     1974.3139	     13076.665
        691.00	     496941.32	     2387.9691	     13076.970
        692.00	     485953.93	     208.92846	     13077.383
        693.00	     484904.79	     2034.6882	     13077.895
        694.00	     479560.62	     1853.2967	     13078.200
        695.00	     467892.58	     401.10548	     13078.613
        696.00	     467415.03	     2037.5251	     13079.126
        697.00	     455011.96	     401.36594	     13079.431
        698.00	     453124.33	     2193.4976	     13079.949
        699.00	     442416.85	     245.60605	     13080.254
        700.00	     440277.00	     2028.3891	     13080.769
        701.00	     432588.50	     1845.5236	     13081.074
        702.00	     424664.63	     2111.8913	     13081.378
        703.00	     413289.32	     455.37383	     13081.792
        704.00	     412282.70	     2232.7054	     13082.310
        705.00	     403711.61	     2012.1562	     13082.615
        706.00	     395839.51	     1939.9838	     13082.919
        707.00	     384616.40	     279.73160	     13083.332
        708.00	     381319.46	     2139.9099	     13083.851
        709.00	     373629.51	     1990.1484	     13084.156
        710.00	     366316.14	     1835.8866	     13084.460
        711.00	     353996.28	     527.08855	     13084.873
        712.00	     351187.84	     2074.2864	     13085.392
        713.00	     343183.01	     1965.8811	     13085.697
        714.00	     332279.67	     360.52576	     13086.001
        715.00	     325030.24	     343.19992	     13086.523
        716.00	     321529.77	     2238.1110	     13087.036
        717.00	     309950.72	     441.06820	     13087.340
        718.00	     307168.54	     1939.0365	     13087.856
        719.00	     296319.67	     138.48044	     13088.161
        720.00	     293527.16	     1826.5147	     13088.676
        721.00	     285982.90	     1658.7927	     13088.981
        722.00	     275781.18	     454.46456	     13089.394
        723.00	     272642.25	     1578.9778	     13089.906
        724.00	     262743.73	     393.91775	     13090.211
        725.00	     259941.65	     1738.8089	     13090.727
        726.00	     252444.49	     1600.2520	     13091.031
        727.00	     243014.13	     307.58261	     13091.444
        728.00	     240310.16	     1550.0855	     13091.957
        729.00	     233029.34	     1464.3587	     13092.262
        730.00	     224673.40	     365.24052	     13092.675
        731.00	     218397.52	     386.01225	     13093.188
        732.00	     217056.73	     1425.5560	     13093.700
        733.00	     210204.63	     1180.9462	     13094.004
        734.00	     202648.25	     409.60863	     13094.418
        735.00	     197360.57	     441.52667	     13094.931
        736.00	     195362.05	     1166.7333	     13095.446
        737.00	     190662.48	     1370.6745	     13095.751
        738.00	     182972.47	     269.28925	     13096.164
        739.00	     180563.19	     1048.4384	     13096.677
        740.00	     172976.78	     434.65714	     13096.981
        741.00	     168933.13	     338.65620	     13097.497
        742.00	     167465.43	     1180.9172	     13098.009
        743.00	     160443.33	     437.34623	     13098.314
        744.00	     159054.55	     946.01894	     13098.829
        745.00	     152433.14	     274.33058	     13099.137
        746.00	     148592.09	     291.80867	     13099.650
        747.00	     147035.79	     1184.2256	     13100.166
        748.00	     142832.41	     1095.0945	     13100.470
        749.00	     136970.39	     250.19215	     13100.883
        750.00	     136137.94	     860.16035	     13101.396
        751.00	     131732.90	     698.78632	     13101.700
        752.00	     127344.03	     258.52969	     13102.005
        753.00	     124688.27	     275.17452	     13102.527
        754.00	     120488.47	     427.77452	     13103.040
        755.00	     119364.09	     780.18673	     13103.555
        756.00	     116330.29	     726.18997	     13103.860
        757.00	     111582.68	     307.65771	     13104.273
        758.00	     111647.90	     779.15134	     13104.785
        759.00	     107076.40	     348.20302	     13105.090
        760.00	     105868.99	     895.89084	     13105.609
        761.00	     103356.85	     540.74401	     13105.913
        762.00	     99336.654	     221.82923	     13106.326
        763.00	     98212.263	     792.63552	     13106.842
        764.00	     95076.577	     417.04965	     13107.147
        765.00	     91420.648	     303.82099	     13107.560
        766.00	     91070.383	     605.18941	     13108.072
        767.00	     88988.122	     613.59955	     13108.377
        768.00	     84821.012	     344.83641	     13108.790
        769.00	     84323.623	     522.69570	     13109.302
        770.00	     82373.559	     685.71025	     13109.607
        771.00	     79405.971	     201.39826	     13110.020
        772.00	     76900.916	     341.04567	     13110.536
        773.00	     76157.681	     658.27244	     13111.052
        774.00	     72892.757	     230.29082	     13111.357
        775.00	     72377.116	     503.70985	     13111.872
        776.00	     70238.583	     444.80755	     13112.176
        777.00	     68256.944	     240.93307	     13112.590
        778.00	     67287.318	     614.34728	     13113.102
        779.00	     65131.738	     312.52981	     13113.407
        780.00	     62781.422	     194.52135	     13113.820
        781.00	     62654.152	     418.90157	     13114.333
        782.00	     59684.409	     346.06142	     13114.637
        783.00	     58760.671	     282.00704	     13115.156
        784.00	     58287.066	     403.25279	     13115.669
        785.00	     55790.732	     568.06492	     13115.973
        786.00	     54544.707	     293.55774	     13116.386
        787.00	     53921.863	     316.87089	     13116.902
        788.00	     52615.670	     253.55545	     13117.206
        789.00	     50645.451	     186.88538	     13117.620
        790.00	     50432.053	     310.07639	     13118.132
        791.00	     49002.477	     271.72758	     13118.437
        792.00	     48812.408	     253.83406	     13118.952
        793.00	     47898.691	     314.46116	     13119.257
        794.00	     46257.600	     280.24117	     13119.670
        795.00	     45486.123	     364.18049	     13120.183
        796.00	     44015.975	     231.98317	     13120.487
        797.00	     41343.346	     283.05884	     13120.901
        798.00	     39085.253	     280.41425	     13121.413
        799.00	     37728.604	     307.10928	     13121.718
        800.00	     35761.388	     229.58037	     13122.131
