Title=200220_em_0,1MNaOH_2,0uM_Rho6G
Comment=
Signature=ISS_Experiment_Ver_1_0
Timestamp=Thu Feb 20 17:12:42 2020
Product=Vinci2
SoftwareVersion=BETA.2.4
BuildNumber=234
RealTimeStart=8122.04332544

AcquisitionType=Photon Counting
AcquisitionFormat=L
AcquisitionSide=Right
Detector Gains=(0.0, 0.0)

Measurable=Intensity
MaxIterations=10

RightEmissionWavelengthBandwidth=8.0
ExcitationWavelengthBandwidth=8.0
Visualization=Y:Intensity,X:EmissionWavelength,PlotType:2D


EmissionWavelength=type:numeric,unit:nm,from:400.0,to:800.0,step:1.0
ExcitationWavelength=type:numeric,unit:nm,fixed:522.0

Space=EmissionWavelength
Columns=EmissionWavelength,Intensity,IntensityStdError,RealTime
[Data]
        400.00	     333.00497	     4.4973642	     8124.9257
        401.00	     323.21705	     4.2236499	     8125.5004
        402.00	     329.41973	     3.9351940	     8125.8049
        403.00	     329.55874	     5.1437650	     8126.2181
        404.00	     326.44166	     3.3428409	     8126.7308
        405.00	     328.68344	     3.0334404	     8127.0353
        406.00	     337.30765	     3.8662641	     8127.3395
        407.00	     337.79903	     3.9826680	     8127.7529
        408.00	     330.79467	     4.6243413	     8128.2718
        409.00	     337.49457	     2.9593381	     8128.5763
        410.00	     340.44710	     3.0514570	     8128.8807
        411.00	     341.40694	     3.9651760	     8129.2938
        412.00	     341.94394	     4.4907582	     8129.8126
        413.00	     346.59345	     3.3728908	     8130.1173
        414.00	     361.72306	     5.3482069	     8130.4217
        415.00	     359.37188	     3.9848965	     8130.8349
        416.00	     363.85513	     5.3467918	     8131.3538
        417.00	     369.61734	     2.6076756	     8131.6584
        418.00	     381.29461	     2.6233252	     8131.9626
        419.00	     390.35883	     3.3998775	     8132.3759
        420.00	     397.42438	     5.3837395	     8132.8979
        421.00	     397.37348	     3.0676979	     8133.2021
        422.00	     406.23321	     2.5510154	     8133.6153
        423.00	     421.74440	     5.1784420	     8133.9200
        424.00	     423.19203	     3.8132516	     8134.4356
        425.00	     428.59552	     4.2088077	     8134.7401
        426.00	     443.85212	     3.5352260	     8135.0447
        427.00	     452.56274	     7.4014510	     8135.4577
        428.00	     469.48014	     3.5809854	     8135.7624
        429.00	     471.31714	     2.2722009	     8136.2843
        430.00	     484.26901	     3.4172418	     8136.5891
        431.00	     491.38410	     5.0530485	     8137.1075
        432.00	     505.60927	     6.6915401	     8137.4119
        433.00	     512.89876	     4.5772287	     8137.7167
        434.00	     522.36924	     3.4867436	     8138.1299
        435.00	     538.81439	     6.2479690	     8138.6487
        436.00	     550.50974	     5.1081677	     8138.9533
        437.00	     568.44048	     3.3201109	     8139.3663
        438.00	     569.59459	     5.8767377	     8139.8822
        439.00	     593.78516	     4.0809020	     8140.1867
        440.00	     590.44840	     7.4254351	     8140.7024
        441.00	     616.70923	     5.1096919	     8141.0071
        442.00	     624.39707	     5.2152883	     8141.5257
        443.00	     638.73684	     4.7142710	     8141.8308
        444.00	     655.59070	     2.5439725	     8142.3459
        445.00	     663.69842	     5.0202604	     8142.6503
        446.00	     673.75340	     6.5003531	     8143.0633
        447.00	     688.86760	     3.6114380	     8143.3682
        448.00	     700.44840	     3.5558836	     8143.8838
        449.00	     712.15730	     5.3516376	     8144.1881
        450.00	     727.81182	     5.7184299	     8144.4925
        451.00	     728.90909	     5.7547366	     8144.9058
        452.00	     750.32013	     7.2545771	     8145.4245
        453.00	     767.86490	     7.9787827	     8145.7292
        454.00	     774.84782	     6.7539211	     8146.0337
        455.00	     794.84821	     6.7326133	     8146.4468
        456.00	     789.38154	     6.1492934	     8146.9658
        457.00	     809.70604	     5.8637760	     8147.2704
        458.00	     833.39539	     6.2980671	     8147.7891
        459.00	     828.23330	     10.092193	     8148.0939
        460.00	     856.37816	     9.9420388	     8148.6093
        461.00	     866.29573	     5.3587824	     8148.9140
        462.00	     885.06391	     5.6855439	     8149.4324
        463.00	     886.35231	     11.187754	     8149.7372
        464.00	     894.65570	     5.2983969	     8150.1502
        465.00	     929.07409	     6.7625302	     8150.6629
        466.00	     931.59246	     7.2382655	     8150.9674
        467.00	     956.72393	     9.1402065	     8151.3806
        468.00	     975.99363	     5.9851606	     8151.8930
        469.00	     986.70298	     8.9345362	     8152.1980
        470.00	     999.17493	     7.0861218	     8152.7134
        471.00	     1019.2068	     7.5900283	     8153.0176
        472.00	     1061.2630	     7.1968069	     8153.4309
        473.00	     1084.7688	     6.3388005	     8153.9436
        474.00	     1118.1695	     7.2469701	     8154.2482
        475.00	     1155.1738	     7.5437492	     8154.5526
        476.00	     1175.6278	     7.9306103	     8154.8726
        477.00	     1247.5341	     7.5784346	     8155.2858
        478.00	     1268.5109	     7.4653583	     8155.7955
        479.00	     1355.5209	     9.2824670	     8156.1001
        480.00	     1399.5238	     12.551619	     8156.6155
        481.00	     1477.9527	     13.718194	     8156.9200
        482.00	     1538.6772	     19.371895	     8157.3331
        483.00	     1702.8990	     8.8708645	     8157.6377
        484.00	     1764.9045	     19.795102	     8158.1565
        485.00	     1930.2674	     28.607680	     8158.4611
        486.00	     2147.2310	     10.227957	     8158.8743
        487.00	     2267.4940	     27.798185	     8159.3898
        488.00	     2490.2065	     36.452052	     8159.6946
        489.00	     2821.0638	     12.437409	     8160.1077
        490.00	     3027.7936	     52.712727	     8160.6204
        491.00	     3517.5004	     12.417203	     8160.9254
        492.00	     3756.5747	     71.185164	     8161.4434
        493.00	     4432.4410	     17.936163	     8161.7485
        494.00	     4792.2522	     82.159533	     8162.2671
        495.00	     5394.4300	     103.70005	     8162.5716
        496.00	     5901.5143	     123.84141	     8162.9844
        497.00	     7376.9791	     6.4385481	     8163.2892
        498.00	     8141.4376	     174.25330	     8163.8080
        499.00	     9612.6570	     192.81463	     8164.1124
        500.00	     12051.359	     25.014600	     8164.5256
        501.00	     13628.823	     334.09442	     8165.0350
        502.00	     16464.428	     399.01277	     8165.3395
        503.00	     21036.572	     45.530816	     8165.7528
        504.00	     23925.715	     618.33320	     8166.2655
        505.00	     29160.200	     744.22893	     8166.5699
        506.00	     37226.004	     65.760946	     8166.9831
        507.00	     42017.581	     1065.8967	     8167.4958
        508.00	     53350.426	     90.856147	     8167.8035
        509.00	     58962.862	     1474.9393	     8168.3160
        510.00	     73287.720	     81.548792	     8168.6208
        511.00	     80385.436	     1784.8619	     8169.1362
        512.00	     92156.440	     1827.4163	     8169.4407
        513.00	     108895.25	     96.917562	     8169.8539
        514.00	     120355.05	     44.737421	     8170.3667
        515.00	     127071.52	     1855.5432	     8170.8794
        516.00	     137607.77	     1572.6359	     8171.1840
        517.00	     146581.88	     1361.0767	     8171.4879
        518.00	     155998.41	     62.774837	     8171.9013
        519.00	     158936.05	     838.08819	     8172.4200
        520.00	     164107.50	     51.737486	     8172.7251
        521.00	     165732.79	     533.53544	     8173.2402
        522.00	     169367.86	     35.487436	     8173.5453
        523.00	     170599.57	     332.77827	     8174.0607
        524.00	     172449.25	     266.94402	     8174.3651
        525.00	     174064.34	     35.788588	     8174.7783
        526.00	     174774.38	     143.96929	     8175.2938
        527.00	     175936.44	     116.57425	     8175.5987
        528.00	     177244.07	     99.639143	     8175.9030
        529.00	     177929.34	     103.62867	     8176.2230
        530.00	     179038.03	     31.513335	     8176.6362
        531.00	     179563.94	     69.240003	     8177.1489
        532.00	     180674.07	     69.853359	     8177.4531
        533.00	     181807.55	     47.741177	     8177.8665
        534.00	     182587.54	     59.136240	     8178.3792
        535.00	     183523.38	     56.733779	     8178.6834
        536.00	     184721.65	     43.371308	     8179.0967
        537.00	     185733.81	     48.661977	     8179.6096
        538.00	     186923.44	     33.773127	     8179.9143
        539.00	     187915.24	     51.813999	     8180.4296
        540.00	     189087.33	     33.748345	     8180.7343
        541.00	     190492.00	     36.390920	     8181.0386
        542.00	     191561.67	     49.500039	     8181.4516
        543.00	     192649.84	     17.938868	     8181.9706
        544.00	     193942.52	     48.319622	     8182.2754
        545.00	     195139.30	     70.593306	     8182.5798
        546.00	     196445.83	     50.233957	     8183.1016
        547.00	     197544.44	     38.330099	     8183.4063
        548.00	     199008.91	     30.268527	     8183.7103
        549.00	     200460.67	     75.685771	     8184.1237
        550.00	     201643.77	     31.636170	     8184.6427
        551.00	     202906.49	     48.131640	     8184.9470
        552.00	     204226.73	     41.421622	     8185.3600
        553.00	     205534.41	     60.336481	     8185.6648
        554.00	     206745.39	     51.353099	     8186.1836
        555.00	     208342.46	     42.406434	     8186.4885
        556.00	     209718.53	     58.722602	     8187.0039
        557.00	     211211.33	     43.852898	     8187.3080
        558.00	     212640.86	     49.096094	     8187.7215
        559.00	     214327.92	     65.692022	     8188.2340
        560.00	     215547.48	     55.445469	     8188.5385
        561.00	     217073.79	     53.675023	     8188.9518
        562.00	     218662.17	     39.143391	     8189.4642
        563.00	     220130.22	     54.983754	     8189.7687
        564.00	     221688.69	     57.322904	     8190.0736
        565.00	     223244.45	     29.594175	     8190.5954
        566.00	     225181.50	     59.913056	     8190.8997
        567.00	     226502.76	     59.793120	     8191.2044
        568.00	     228039.72	     42.301308	     8191.6188
        569.00	     230233.42	     54.248693	     8192.1364
        570.00	     231407.11	     60.768262	     8192.4410
        571.00	     233152.79	     68.873521	     8192.7451
        572.00	     234691.16	     64.928763	     8193.1585
        573.00	     236601.85	     62.116359	     8193.6771
        574.00	     237883.99	     83.293508	     8193.9821
        575.00	     240096.66	     44.587827	     8194.2863
        576.00	     241215.49	     45.419160	     8194.6994
        577.00	     243036.98	     68.107344	     8195.2184
        578.00	     244852.73	     78.076683	     8195.5226
        579.00	     246626.29	     44.099221	     8195.8274
        580.00	     248586.68	     52.131306	     8196.2405
        581.00	     250180.34	     26.313106	     8196.7624
        582.00	     251630.56	     51.502861	     8197.2749
        583.00	     253356.92	     56.691992	     8197.5798
        584.00	     255142.28	     72.980765	     8198.0953
        585.00	     256643.00	     64.223332	     8198.3996
        586.00	     258450.78	     125.63714	     8198.7042
        587.00	     259937.61	     69.379799	     8199.1172
        588.00	     261302.57	     96.160130	     8199.6363
        589.00	     263086.10	     48.990793	     8199.9411
        590.00	     264783.26	     87.065366	     8200.4566
        591.00	     266011.39	     83.680951	     8200.7611
        592.00	     267933.69	     47.844891	     8201.1739
        593.00	     268971.77	     56.229344	     8201.6872
        594.00	     270660.33	     85.488482	     8202.1995
        595.00	     272102.97	     140.11664	     8202.5040
        596.00	     273593.50	     63.724473	     8202.9169
        597.00	     275652.44	     157.02229	     8203.4295
        598.00	     276774.17	     159.81460	     8203.7342
        599.00	     278367.49	     142.61386	     8204.0387
        600.00	     279263.07	     63.150652	     8204.4519
        601.00	     281030.51	     161.85634	     8204.9706
        602.00	     282509.89	     139.23587	     8205.2751
        603.00	     283932.54	     172.38500	     8205.5795
        604.00	     284462.62	     74.952724	     8205.9929
        605.00	     286513.06	     238.48146	     8206.5118
        606.00	     287820.18	     207.97679	     8206.8164
        607.00	     288563.36	     236.31764	     8207.1206
        608.00	     289140.83	     60.241705	     8207.5341
        609.00	     290843.16	     277.63964	     8208.0529
        610.00	     292014.10	     309.69898	     8208.3571
        611.00	     292501.35	     331.96710	     8208.6618
        612.00	     292202.34	     94.944952	     8209.0751
        613.00	     293713.26	     406.03236	     8209.5936
        614.00	     292236.38	     88.913583	     8209.8985
        615.00	     293164.35	     481.26040	     8210.4171
        616.00	     292896.82	     542.63762	     8210.7214
        617.00	     290792.96	     102.27814	     8211.1347
        618.00	     291417.38	     685.60457	     8211.6472
        619.00	     290073.46	     726.23129	     8211.9518
        620.00	     287176.54	     107.37274	     8212.3650
        621.00	     287468.57	     862.77675	     8212.8777
        622.00	     283421.23	     127.81960	     8213.1823
        623.00	     282924.20	     943.09764	     8213.6977
        624.00	     280048.77	     800.24160	     8214.0023
        625.00	     274845.83	     151.87960	     8214.4155
        626.00	     273987.03	     1058.1316	     8214.9283
        627.00	     268185.91	     137.91154	     8215.2330
        628.00	     266213.05	     1003.0261	     8215.7483
        629.00	     262624.81	     1107.8798	     8216.0531
        630.00	     256025.49	     188.40490	     8216.4661
        631.00	     254688.09	     1096.8756	     8216.9790
        632.00	     249850.96	     1091.5867	     8217.2833
        633.00	     246039.05	     1166.0745	     8217.5875
        634.00	     238713.28	     127.21497	     8218.0009
        635.00	     236558.73	     1192.9442	     8218.5197
        636.00	     232424.08	     1109.1617	     8218.8243
        637.00	     227700.14	     1133.7630	     8219.1286
        638.00	     220586.85	     175.39920	     8219.5417
        639.00	     218785.28	     1191.5456	     8220.0607
        640.00	     213963.59	     1089.6315	     8220.3651
        641.00	     207287.19	     150.70502	     8220.6700
        642.00	     202416.27	     205.50243	     8221.1917
        643.00	     200664.86	     1197.0442	     8221.7043
        644.00	     196319.59	     1101.0468	     8222.0089
        645.00	     189291.32	     207.74828	     8222.4220
        646.00	     187838.44	     1212.0305	     8222.9344
        647.00	     183207.43	     1061.5956	     8223.2389
        648.00	     176668.87	     183.24857	     8223.6523
        649.00	     174817.86	     1031.1526	     8224.1679
        650.00	     170717.93	     978.96217	     8224.4725
        651.00	     164663.41	     162.69243	     8224.8857
        652.00	     163022.58	     1024.3428	     8225.3984
        653.00	     159373.20	     975.57357	     8225.7027
        654.00	     155570.50	     855.18292	     8226.0071
        655.00	     149284.95	     112.98352	     8226.4205
        656.00	     145882.98	     243.21625	     8226.9394
        657.00	     143857.02	     897.54226	     8227.4551
        658.00	     140516.12	     885.58576	     8227.7596
        659.00	     134883.64	     206.88622	     8228.1727
        660.00	     133140.42	     884.60139	     8228.6855
        661.00	     129891.79	     779.97642	     8228.9901
        662.00	     124564.11	     224.46316	     8229.4031
        663.00	     123462.54	     784.86563	     8229.9155
        664.00	     120013.80	     824.87955	     8230.2201
        665.00	     116416.00	     745.51145	     8230.5246
        666.00	     111634.64	     233.60634	     8230.9379
        667.00	     108790.22	     158.56426	     8231.4569
        668.00	     107137.29	     785.51270	     8231.9694
        669.00	     104479.43	     703.18394	     8232.2736
        670.00	     99945.659	     138.05502	     8232.6870
        671.00	     98101.933	     750.01200	     8233.1994
        672.00	     95555.535	     615.43704	     8233.5040
        673.00	     92927.496	     705.63293	     8233.8085
        674.00	     88741.830	     141.71886	     8234.2219
        675.00	     87732.057	     648.62923	     8234.7407
        676.00	     85047.647	     589.94409	     8235.0452
        677.00	     80980.960	     129.19894	     8235.4583
        678.00	     79856.558	     505.74949	     8235.9742
        679.00	     77756.362	     620.59416	     8236.2783
        680.00	     73980.102	     202.74903	     8236.6918
        681.00	     73514.923	     559.06089	     8237.2042
        682.00	     71091.319	     512.09817	     8237.5092
        683.00	     67783.060	     96.284519	     8237.9221
        684.00	     66977.913	     451.42408	     8238.4345
        685.00	     64714.778	     471.08106	     8238.7391
        686.00	     61300.254	     90.258221	     8239.1524
        687.00	     59613.580	     92.919337	     8239.6654
        688.00	     59162.489	     429.46953	     8240.1777
        689.00	     57130.463	     370.81545	     8240.4820
        690.00	     54682.028	     171.11394	     8240.8953
        691.00	     54244.547	     378.95471	     8241.4111
        692.00	     51268.203	     96.099323	     8241.7158
        693.00	     50871.399	     427.58368	     8242.2312
        694.00	     48710.666	     107.87492	     8242.5364
        695.00	     47148.527	     132.87825	     8243.0517
        696.00	     46479.930	     392.99599	     8243.5640
        697.00	     45085.894	     288.21334	     8243.8685
        698.00	     43030.953	     140.94684	     8244.2816
        699.00	     41920.733	     107.61590	     8244.7947
        700.00	     41396.062	     319.82025	     8245.3071
        701.00	     40288.267	     305.02965	     8245.6114
        702.00	     38486.652	     115.51045	     8246.0248
        703.00	     38067.234	     245.42094	     8246.5372
        704.00	     36423.149	     184.06382	     8246.8421
        705.00	     35910.530	     196.42907	     8247.3575
        706.00	     34417.457	     155.83102	     8247.6625
        707.00	     33541.450	     163.94098	     8248.1780
        708.00	     33305.404	     265.29418	     8248.6904
        709.00	     32364.184	     240.76586	     8248.9947
        710.00	     31108.443	     135.65030	     8249.4081
        711.00	     30140.405	     105.50033	     8249.9210
        712.00	     29541.369	     160.56092	     8250.4336
        713.00	     29096.099	     216.87513	     8250.9458
        714.00	     28558.402	     103.08746	     8251.2507
        715.00	     28070.418	     182.96317	     8251.6637
        716.00	     26784.508	     86.511210	     8251.9682
        717.00	     26406.982	     240.11013	     8252.4840
        718.00	     25585.447	     178.90839	     8252.7883
        719.00	     24797.433	     98.198393	     8253.2016
        720.00	     24428.993	     230.25662	     8253.7141
        721.00	     23893.145	     136.84898	     8254.0188
        722.00	     23269.786	     119.15520	     8254.5346
        723.00	     22531.767	     94.609029	     8255.0473
        724.00	     22552.364	     138.12014	     8255.5596
        725.00	     22061.018	     187.10038	     8255.8642
        726.00	     20895.858	     102.84717	     8256.2774
        727.00	     20884.944	     170.20245	     8256.7898
        728.00	     20742.738	     160.50961	     8257.0946
        729.00	     19775.666	     104.79790	     8257.5077
        730.00	     19542.527	     170.48357	     8258.0203
        731.00	     18736.487	     143.16798	     8258.3252
        732.00	     18698.449	     171.04831	     8258.8438
        733.00	     18244.616	     174.52661	     8259.1482
        734.00	     17532.193	     140.47096	     8259.5613
        735.00	     17495.933	     121.39897	     8260.0769
        736.00	     17138.873	     155.88860	     8260.3818
        737.00	     16596.130	     166.84331	     8260.7946
        738.00	     16084.295	     122.51450	     8261.3075
        739.00	     16013.192	     86.339238	     8261.8202
        740.00	     15596.870	     79.712734	     8262.1244
        741.00	     15074.678	     155.27528	     8262.5377
        742.00	     14915.869	     142.26876	     8263.0501
        743.00	     14749.411	     64.202436	     8263.3546
        744.00	     14518.802	     199.04334	     8263.6594
        745.00	     13929.566	     87.119964	     8264.0725
        746.00	     13655.105	     101.11446	     8264.5914
        747.00	     13218.615	     73.750756	     8264.8962
        748.00	     13098.952	     73.752356	     8265.4148
        749.00	     12951.968	     132.28434	     8265.7189
        750.00	     12380.846	     102.50857	     8266.1323
        751.00	     12482.679	     157.65571	     8266.6482
        752.00	     12056.188	     144.36595	     8266.9528
        753.00	     11689.428	     120.35820	     8267.3658
        754.00	     11712.162	     147.50087	     8267.8782
        755.00	     11214.304	     113.09184	     8268.1827
        756.00	     11101.758	     131.08950	     8268.5961
        757.00	     11075.555	     92.723690	     8269.1117
        758.00	     10595.693	     106.51008	     8269.4168
        759.00	     10631.251	     132.92091	     8269.9319
        760.00	     10439.590	     106.90207	     8270.2364
        761.00	     10125.261	     81.831123	     8270.6497
        762.00	     9818.8180	     89.148013	     8271.1623
        763.00	     9638.5911	     91.733751	     8271.4672
        764.00	     9544.3279	     99.922810	     8271.9855
        765.00	     9676.6352	     93.658766	     8272.2904
        766.00	     9081.0924	     98.505265	     8272.7034
        767.00	     9010.5915	     39.754334	     8273.2193
        768.00	     8740.0429	     67.843286	     8273.7318
        769.00	     8865.4565	     98.368395	     8274.2442
        770.00	     8576.0064	     136.28529	     8274.5488
        771.00	     8433.4936	     107.75237	     8274.8533
        772.00	     8301.1105	     111.85537	     8275.2665
        773.00	     8245.8964	     122.94064	     8275.7854
        774.00	     8228.7681	     91.468916	     8276.0896
        775.00	     7816.5164	     74.384553	     8276.3945
        776.00	     7800.7477	     104.89723	     8276.9161
        777.00	     7751.4109	     64.597809	     8277.2208
        778.00	     7377.9197	     138.84577	     8277.5255
        779.00	     7155.8733	     72.055551	     8278.0470
        780.00	     7260.5615	     97.607657	     8278.3515
        781.00	     7214.1881	     130.97225	     8278.7649
        782.00	     6986.7466	     95.805824	     8279.2777
        783.00	     6870.1394	     80.128843	     8279.7900
        784.00	     7013.4354	     112.19663	     8280.0944
        785.00	     6966.2211	     82.528164	     8280.3991
        786.00	     6561.5324	     97.645726	     8280.7222
        787.00	     6530.8666	     115.17465	     8281.2315
        788.00	     6513.7316	     110.35075	     8281.5364
        789.00	     6402.7217	     84.831026	     8281.8408
        790.00	     6303.3270	     111.37181	     8282.3624
        791.00	     6125.6038	     90.226164	     8282.6673
        792.00	     6169.0747	     83.410593	     8283.0803
        793.00	     6073.3725	     131.99857	     8283.5927
        794.00	     6204.0000	     96.747093	     8283.8976
        795.00	     5865.7695	     69.660200	     8284.3104
        796.00	     5757.1755	     99.397773	     8284.8230
        797.00	     5539.2012	     72.203257	     8285.1278
        798.00	     5224.4158	     81.570983	     8285.5409
        799.00	     5171.4930	     100.09856	     8286.0536
        800.00	     5039.0020	     67.323551	     8286.3580
