Title=200220_em_0,1MNaOH_2,0uM_NR
Comment=
Signature=ISS_Experiment_Ver_1_0
Timestamp=Thu Feb 20 17:33:47 2020
Product=Vinci2
SoftwareVersion=BETA.2.4
BuildNumber=234
RealTimeStart=8514.53290202

AcquisitionType=Photon Counting
AcquisitionFormat=L
AcquisitionSide=Right
Detector Gains=(0.0, 0.0)

Measurable=Intensity
MaxIterations=10

RightEmissionWavelengthBandwidth=8.0
ExcitationWavelengthBandwidth=8.0
Visualization=Y:Intensity,X:EmissionWavelength,PlotType:2D


EmissionWavelength=type:numeric,unit:nm,from:400.0,to:800.0,step:1.0
ExcitationWavelength=type:numeric,unit:nm,fixed:471.0

Space=EmissionWavelength
Columns=EmissionWavelength,Intensity,IntensityStdError,RealTime
[Data]
        400.00	     51.939093	     1.4786298	     8517.8374
        401.00	     53.497994	     1.5491552	     8518.4089
        402.00	     55.793818	     2.3773443	     8518.7135
        403.00	     48.976726	     1.6110963	     8519.1267
        404.00	     48.332991	     2.3209795	     8519.6394
        405.00	     53.861232	     1.9830998	     8519.9439
        406.00	     54.960235	     1.9552763	     8520.3569
        407.00	     50.806064	     1.4156902	     8520.6615
        408.00	     50.628136	     2.3443687	     8521.1804
        409.00	     56.713590	     2.2344523	     8521.4880
        410.00	     56.488162	     2.3429222	     8522.0007
        411.00	     63.635625	     2.0975347	     8522.3051
        412.00	     59.250632	     1.3860008	     8522.7182
        413.00	     54.847053	     2.5427698	     8523.2341
        414.00	     62.586713	     2.3449216	     8523.5387
        415.00	     63.259452	     1.7064831	     8524.0543
        416.00	     66.172027	     2.5225300	     8524.3585
        417.00	     74.196753	     2.0941361	     8524.7719
        418.00	     84.699186	     2.1523706	     8525.2847
        419.00	     78.871213	     4.5620814	     8525.5889
        420.00	     104.20232	     4.1013437	     8526.0023
        421.00	     103.40207	     3.6870023	     8526.5150
        422.00	     106.02790	     3.3352793	     8526.8193
        423.00	     127.95062	     2.0098547	     8527.2326
        424.00	     124.32058	     2.9373752	     8527.7453
        425.00	     133.06584	     2.9663233	     8528.0495
        426.00	     146.01252	     5.9036838	     8528.3539
        427.00	     183.67629	     3.9022763	     8528.7673
        428.00	     180.28969	     3.0279082	     8529.2864
        429.00	     183.24979	     8.5524159	     8529.5905
        430.00	     227.31330	     6.0410769	     8530.0039
        431.00	     238.05353	     7.9811384	     8530.5163
        432.00	     252.16702	     6.2797477	     8530.8209
        433.00	     292.93613	     6.3558438	     8531.2341
        434.00	     308.05295	     11.537623	     8531.7498
        435.00	     331.46622	     7.3721004	     8532.0545
        436.00	     358.04035	     12.963759	     8532.4674
        437.00	     354.65795	     9.4328476	     8532.7720
        438.00	     351.61141	     11.460670	     8533.2877
        439.00	     378.36430	     5.2219040	     8533.5923
        440.00	     370.96908	     4.6000263	     8534.0055
        441.00	     407.67880	     9.1112070	     8534.5181
        442.00	     416.29735	     6.4841075	     8534.8226
        443.00	     462.67524	     7.2005842	     8535.2359
        444.00	     435.61237	     7.4954263	     8535.7485
        445.00	     484.85620	     7.9472594	     8536.0529
        446.00	     507.09921	     14.171691	     8536.3572
        447.00	     557.46208	     18.951959	     8536.7706
        448.00	     641.34689	     26.762182	     8537.2894
        449.00	     704.78189	     18.324639	     8537.5939
        450.00	     826.60440	     29.306507	     8538.0069
        451.00	     1270.8023	     9.7716316	     8538.3116
        452.00	     1858.1525	     141.66880	     8538.8274
        453.00	     2895.7387	     172.58987	     8539.1318
        454.00	     6579.2493	     244.03439	     8539.5449
        455.00	     8327.5715	     429.36231	     8540.0577
        456.00	     12161.797	     1062.5194	     8540.3620
        457.00	     19683.837	     1092.9589	     8540.6666
        458.00	     27707.445	     781.20201	     8541.0798
        459.00	     31723.427	     1654.1769	     8541.5987
        460.00	     38706.248	     1173.3999	     8541.9033
        461.00	     47369.728	     1586.0126	     8542.3161
        462.00	     57058.931	     2031.2191	     8542.8291
        463.00	     67022.917	     663.69298	     8543.1335
        464.00	     73992.030	     1807.9633	     8543.5466
        465.00	     78811.591	     1634.3148	     8544.0593
        466.00	     78837.845	     1700.3260	     8544.3637
        467.00	     91602.539	     2142.2472	     8544.6681
        468.00	     90518.115	     940.17208	     8545.0814
        469.00	     91281.741	     1010.6750	     8545.6004
        470.00	     91097.708	     1120.5902	     8545.9047
        471.00	     95919.880	     1596.5816	     8546.2090
        472.00	     100722.04	     1085.4902	     8546.6224
        473.00	     99409.185	     937.50839	     8547.1414
        474.00	     98297.504	     719.84792	     8547.4456
        475.00	     98733.955	     1045.7108	     8547.7500
        476.00	     100644.11	     1263.6087	     8548.1632
        477.00	     92667.622	     1008.9037	     8548.4679
        478.00	     92978.563	     660.87373	     8548.9898
        479.00	     88082.632	     2300.8093	     8549.2945
        480.00	     80185.643	     1166.6419	     8549.7076
        481.00	     76056.823	     1597.5231	     8550.2200
        482.00	     64784.392	     1444.1671	     8550.5248
        483.00	     69946.174	     2073.5351	     8550.9379
        484.00	     67377.569	     1949.3930	     8551.4506
        485.00	     53972.998	     2497.0766	     8551.7549
        486.00	     33888.558	     1610.0761	     8552.1680
        487.00	     32878.525	     1898.8894	     8552.6811
        488.00	     29699.853	     961.15294	     8553.1933
        489.00	     19913.072	     2021.6048	     8553.4980
        490.00	     14838.056	     628.92124	     8553.9110
        491.00	     8481.2668	     916.17134	     8554.4236
        492.00	     3731.7656	     236.24371	     8554.7299
        493.00	     3431.6372	     479.24881	     8555.2471
        494.00	     1673.0513	     179.45320	     8555.5517
        495.00	     982.39633	     17.779585	     8555.9648
        496.00	     1014.2530	     26.375844	     8556.4773
        497.00	     969.67757	     11.335893	     8556.7818
        498.00	     1084.7488	     8.9338687	     8557.1951
        499.00	     1152.1326	     17.702542	     8557.7078
        500.00	     1217.3329	     20.691235	     8558.0122
        501.00	     1322.2403	     16.251099	     8558.3165
        502.00	     1425.2133	     14.671128	     8558.7299
        503.00	     1469.9900	     7.6609794	     8559.2487
        504.00	     1626.0457	     22.117176	     8559.5530
        505.00	     1644.0089	     21.536470	     8559.8576
        506.00	     1835.1668	     14.510840	     8560.2709
        507.00	     1976.6364	     16.735630	     8560.7897
        508.00	     2067.7447	     27.493423	     8561.0940
        509.00	     2108.1204	     25.032287	     8561.3985
        510.00	     2151.3514	     21.263947	     8561.8118
        511.00	     2261.6468	     26.553186	     8562.3306
        512.00	     2178.5446	     18.197823	     8562.6353
        513.00	     2153.7560	     18.540424	     8563.1540
        514.00	     2136.6842	     22.169451	     8563.4586
        515.00	     2147.3541	     20.224652	     8563.9741
        516.00	     2086.0951	     20.261366	     8564.2785
        517.00	     2064.5092	     17.288700	     8564.6919
        518.00	     2022.4777	     27.438511	     8565.2049
        519.00	     2003.8268	     28.246004	     8565.7174
        520.00	     1958.7950	     11.605321	     8566.0217
        521.00	     1925.2220	     19.390065	     8566.4350
        522.00	     1903.0834	     17.930004	     8566.9478
        523.00	     1923.8176	     19.624360	     8567.4603
        524.00	     1868.7067	     22.022286	     8567.7647
        525.00	     1832.0372	     18.922096	     8568.2802
        526.00	     1735.0708	     16.437197	     8568.5852
        527.00	     1768.9239	     14.955338	     8569.1037
        528.00	     1776.3061	     39.240132	     8569.4083
        529.00	     1669.9239	     18.758979	     8569.7126
        530.00	     1608.1110	     19.850677	     8570.1256
        531.00	     1522.1606	     24.451663	     8570.4302
        532.00	     1486.9499	     20.882567	     8570.9521
        533.00	     1489.8652	     18.118396	     8571.2569
        534.00	     1348.7579	     16.711823	     8571.6698
        535.00	     1368.0356	     19.137750	     8572.1824
        536.00	     1296.5730	     28.037105	     8572.4870
        537.00	     1220.7544	     13.073673	     8572.9002
        538.00	     1192.5196	     7.3910467	     8573.4130
        539.00	     1191.7436	     10.274222	     8573.7172
        540.00	     1095.5792	     13.601763	     8574.1304
        541.00	     1092.1225	     13.215843	     8574.6430
        542.00	     1071.4999	     16.204667	     8574.9476
        543.00	     1035.0156	     11.704293	     8575.3609
        544.00	     1014.0999	     12.885255	     8575.8734
        545.00	     1001.3392	     11.153985	     8576.1781
        546.00	     956.94572	     8.4576542	     8576.5912
        547.00	     934.04077	     18.514181	     8577.1036
        548.00	     889.66946	     5.4298269	     8577.4084
        549.00	     888.27286	     9.5123494	     8577.8215
        550.00	     896.22167	     8.9129213	     8578.3341
        551.00	     852.09142	     11.439013	     8578.6387
        552.00	     854.43847	     11.390805	     8579.0518
        553.00	     844.00673	     9.5512106	     8579.5643
        554.00	     842.87757	     7.0059165	     8579.8688
        555.00	     818.64838	     4.7172333	     8580.2821
        556.00	     818.64988	     7.2344710	     8580.7948
        557.00	     797.22448	     12.344536	     8581.0996
        558.00	     787.93142	     11.398540	     8581.6149
        559.00	     748.92188	     8.8802614	     8581.9197
        560.00	     736.15006	     7.1738685	     8582.4353
        561.00	     718.11593	     12.106563	     8582.7396
        562.00	     704.37417	     8.5390630	     8583.1529
        563.00	     727.82214	     7.9769700	     8583.6656
        564.00	     700.28994	     15.845665	     8583.9701
        565.00	     648.81872	     7.7359898	     8584.3832
        566.00	     651.85504	     8.9834288	     8584.8988
        567.00	     642.53957	     9.1434477	     8585.2032
        568.00	     621.33013	     10.265602	     8585.6166
        569.00	     611.65090	     8.6313727	     8586.1293
        570.00	     585.09505	     10.053462	     8586.4338
        571.00	     563.22939	     6.1937488	     8586.8470
        572.00	     545.68797	     12.273096	     8587.3597
        573.00	     527.16753	     7.5099645	     8587.6639
        574.00	     495.60350	     6.8733915	     8588.0772
        575.00	     489.63046	     4.5946340	     8588.5896
        576.00	     475.83596	     10.779075	     8588.8943
        577.00	     437.39809	     10.074910	     8589.3075
        578.00	     439.79642	     6.3670460	     8589.8201
        579.00	     425.54504	     4.8210926	     8590.1249
        580.00	     409.05300	     5.8113922	     8590.5378
        581.00	     389.84463	     6.1013022	     8591.0506
        582.00	     384.35931	     6.2259942	     8591.3549
        583.00	     370.11585	     8.3757409	     8591.7682
        584.00	     356.36800	     8.0023970	     8592.2807
        585.00	     353.50259	     7.5900801	     8592.5852
        586.00	     338.58298	     4.9346561	     8592.9985
        587.00	     354.67358	     6.6902972	     8593.5109
        588.00	     324.28745	     7.3464569	     8593.8158
        589.00	     320.12375	     6.8634861	     8594.1200
        590.00	     321.28270	     7.1036559	     8594.5333
        591.00	     292.58638	     4.0001406	     8595.0523
        592.00	     307.56937	     11.692642	     8595.3564
        593.00	     306.87721	     7.7305664	     8595.6613
        594.00	     289.30846	     6.9333958	     8596.1832
        595.00	     298.96158	     7.3300976	     8596.6957
        596.00	     303.93617	     6.5598943	     8597.0003
        597.00	     309.02310	     6.4137894	     8597.3045
        598.00	     303.05033	     6.9965590	     8597.7178
        599.00	     321.43120	     8.4796259	     8598.2367
        600.00	     305.11849	     8.8698371	     8598.5410
        601.00	     310.93480	     9.0250111	     8598.8457
        602.00	     302.74270	     4.5293206	     8599.2587
        603.00	     309.00816	     7.3557649	     8599.7778
        604.00	     321.63752	     5.5906926	     8600.0823
        605.00	     314.38179	     8.3923569	     8600.3867
        606.00	     295.19045	     12.685229	     8600.7998
        607.00	     293.50824	     8.5737622	     8601.3185
        608.00	     311.75216	     8.5676972	     8601.6232
        609.00	     316.48943	     9.5297296	     8602.0364
        610.00	     328.54933	     4.3826055	     8602.5521
        611.00	     312.78797	     6.4885853	     8603.0617
        612.00	     328.49664	     7.2181366	     8603.3661
        613.00	     334.97122	     8.4298685	     8603.6704
        614.00	     328.83214	     6.1302167	     8604.0838
        615.00	     339.11953	     10.444925	     8604.6027
        616.00	     336.10374	     4.7970262	     8604.9070
        617.00	     331.21567	     7.3412917	     8605.3202
        618.00	     341.46547	     4.5037995	     8605.8360
        619.00	     343.67539	     12.356031	     8606.1404
        620.00	     324.34239	     7.8920827	     8606.5538
        621.00	     323.43277	     9.0875402	     8607.0665
        622.00	     340.10697	     9.5134277	     8607.3712
        623.00	     329.01859	     5.4519138	     8607.8866
        624.00	     327.59931	     8.1485901	     8608.1909
        625.00	     355.13465	     6.3434002	     8608.6041
        626.00	     339.49439	     11.060853	     8609.1168
        627.00	     348.00445	     8.7360909	     8609.4214
        628.00	     369.12545	     8.9687909	     8609.8347
        629.00	     362.95100	     12.972590	     8610.3470
        630.00	     368.98561	     9.7081520	     8610.6518
        631.00	     379.36019	     7.8736495	     8610.9560
        632.00	     351.95838	     12.232702	     8611.3693
        633.00	     388.98079	     11.079451	     8611.8883
        634.00	     369.45559	     8.9764903	     8612.1924
        635.00	     382.92894	     6.8744586	     8612.6059
        636.00	     389.03673	     6.3387846	     8613.1187
        637.00	     357.96984	     6.9104533	     8613.6311
        638.00	     393.34967	     8.4486174	     8613.9358
        639.00	     369.59557	     9.6056097	     8614.3488
        640.00	     382.57655	     12.996035	     8614.8617
        641.00	     402.36928	     14.321413	     8615.1661
        642.00	     401.05758	     13.100874	     8615.5792
        643.00	     416.38580	     8.9470261	     8616.0918
        644.00	     420.73913	     7.0528463	     8616.3963
        645.00	     432.11064	     11.222463	     8616.8094
        646.00	     426.94955	     10.792697	     8617.3220
        647.00	     444.88668	     8.1108607	     8617.6266
        648.00	     428.08945	     10.150048	     8618.0398
        649.00	     441.14373	     8.9853547	     8618.5522
        650.00	     456.32086	     11.225037	     8618.8574
        651.00	     428.05162	     9.4866773	     8619.3728
        652.00	     466.15343	     12.186793	     8619.8852
        653.00	     449.88485	     9.7970904	     8620.1901
        654.00	     459.41173	     15.224016	     8620.7088
        655.00	     454.60098	     11.406173	     8621.2214
        656.00	     465.54230	     14.880343	     8621.7340
        657.00	     453.37752	     12.635281	     8622.0381
        658.00	     453.88981	     14.380389	     8622.4515
        659.00	     462.05701	     8.9009352	     8622.9640
        660.00	     436.34868	     12.791468	     8623.2690
        661.00	     462.29311	     16.509674	     8623.7843
        662.00	     482.06252	     9.4825450	     8624.0891
        663.00	     453.23689	     11.694495	     8624.5021
        664.00	     437.39957	     7.8609999	     8625.0145
        665.00	     476.55923	     11.301213	     8625.3191
        666.00	     448.71237	     14.038126	     8625.6235
        667.00	     477.34018	     10.010458	     8626.0369
        668.00	     461.91840	     15.035609	     8626.5557
        669.00	     467.64968	     10.013994	     8626.8599
        670.00	     433.73995	     13.388772	     8627.1647
        671.00	     456.00507	     11.803984	     8627.5778
        672.00	     450.95100	     11.058606	     8628.0966
        673.00	     458.77615	     11.623641	     8628.4014
        674.00	     442.73409	     16.996224	     8628.9200
        675.00	     429.45589	     16.946416	     8629.2243
        676.00	     437.76005	     18.940856	     8629.5291
        677.00	     440.42157	     12.988594	     8629.9421
        678.00	     413.11380	     15.147420	     8630.4611
        679.00	     405.35244	     12.501386	     8630.7654
        680.00	     424.96027	     18.331350	     8631.1787
        681.00	     390.55453	     11.852300	     8631.6911
        682.00	     386.20318	     14.293980	     8631.9960
        683.00	     387.36905	     11.184862	     8632.5147
        684.00	     411.50903	     16.044367	     8632.8190
        685.00	     378.95782	     24.043107	     8633.1236
        686.00	     398.58059	     13.514806	     8633.5368
        687.00	     389.61059	     19.249921	     8634.0555
        688.00	     384.89783	     11.112970	     8634.3600
        689.00	     388.31863	     18.467058	     8634.6645
        690.00	     379.94015	     9.3720434	     8635.0778
        691.00	     376.47515	     22.157604	     8635.5967
        692.00	     350.00377	     12.943341	     8635.9011
        693.00	     328.34910	     16.614607	     8636.3143
        694.00	     354.72721	     21.135120	     8636.8299
        695.00	     330.05979	     21.689562	     8637.1344
        696.00	     318.09635	     13.734130	     8637.5478
        697.00	     341.08239	     21.027033	     8638.0602
        698.00	     318.26350	     10.763920	     8638.3647
        699.00	     279.42412	     19.107495	     8638.7780
        700.00	     309.14522	     16.307784	     8639.2905
        701.00	     341.92137	     21.860609	     8639.5952
        702.00	     338.09614	     19.848540	     8640.1140
        703.00	     302.73605	     22.355423	     8640.4184
        704.00	     296.57917	     16.663772	     8640.8318
        705.00	     285.42301	     27.592075	     8641.3447
        706.00	     277.64944	     17.138855	     8641.8602
        707.00	     299.61123	     18.759200	     8642.1650
        708.00	     279.73329	     11.437427	     8642.6832
        709.00	     276.98516	     13.026285	     8642.9877
        710.00	     277.01795	     20.045118	     8643.4010
        711.00	     284.05613	     18.832175	     8643.9138
        712.00	     314.16851	     23.478535	     8644.2180
        713.00	     276.40781	     18.075449	     8644.6313
        714.00	     297.67910	     12.732640	     8645.1473
        715.00	     266.86240	     16.774176	     8645.4515
        716.00	     287.82069	     18.153200	     8645.7560
        717.00	     234.97143	     23.264428	     8646.1692
        718.00	     298.71334	     24.245434	     8646.6881
        719.00	     284.14395	     34.127176	     8646.9924
        720.00	     273.50028	     24.568440	     8647.4058
        721.00	     286.56499	     24.780969	     8647.9183
        722.00	     280.80156	     24.288904	     8648.2233
        723.00	     279.72356	     9.6046970	     8648.7387
        724.00	     239.14961	     24.026704	     8649.0429
        725.00	     256.94618	     32.518927	     8649.3474
        726.00	     246.06504	     19.769996	     8649.7608
        727.00	     240.87532	     29.695118	     8650.2799
        728.00	     250.24157	     17.135997	     8650.5843
        729.00	     223.40320	     25.337696	     8651.1030
        730.00	     232.65817	     25.499593	     8651.4073
        731.00	     205.08363	     13.887976	     8651.8206
        732.00	     229.72604	     30.122328	     8652.3332
        733.00	     217.39616	     19.791288	     8652.6379
        734.00	     244.68205	     20.825038	     8653.0509
        735.00	     272.33563	     36.616350	     8653.5634
        736.00	     237.09740	     37.016260	     8653.8682
        737.00	     223.40541	     31.928937	     8654.2813
        738.00	     258.71036	     20.845670	     8654.7939
        739.00	     262.14381	     32.646725	     8655.0981
        740.00	     252.76856	     17.793734	     8655.5115
        741.00	     258.71466	     31.457233	     8656.0244
        742.00	     179.29677	     22.724057	     8656.3289
        743.00	     243.65213	     25.142340	     8656.7419
        744.00	     168.16609	     30.349029	     8657.2545
        745.00	     266.53171	     32.847218	     8657.5589
        746.00	     205.98016	     29.971077	     8657.9722
        747.00	     266.29852	     35.901774	     8658.4848
        748.00	     206.09472	     36.324429	     8658.7892
        749.00	     267.71673	     42.452056	     8659.2023
        750.00	     205.97340	     33.092110	     8659.5068
        751.00	     281.65527	     27.182080	     8660.0228
        752.00	     206.09306	     27.762896	     8660.3276
        753.00	     143.85397	     24.024627	     8660.8463
        754.00	     232.25101	     22.600378	     8661.3589
        755.00	     232.18460	     33.758605	     8661.8714
        756.00	     254.29208	     41.459951	     8662.1761
        757.00	     232.59752	     23.198611	     8662.4801
        758.00	     214.23287	     26.986860	     8662.8935
        759.00	     258.72638	     32.596916	     8663.4122
        760.00	     225.32303	     9.2449993	     8663.7168
        761.00	     222.64671	     40.122653	     8664.0213
        762.00	     227.72472	     49.893121	     8664.4346
        763.00	     268.35713	     39.110970	     8664.9534
        764.00	     245.06108	     29.085805	     8665.2576
        765.00	     265.84492	     29.142529	     8665.5622
        766.00	     244.87656	     41.273922	     8665.9755
        767.00	     241.63510	     31.233747	     8666.4942
        768.00	     203.96543	     28.496555	     8666.7990
        769.00	     303.47381	     34.238260	     8667.1031
        770.00	     218.21737	     33.006984	     8667.5165
        771.00	     284.75897	     37.862009	     8668.0353
        772.00	     134.94576	     42.212117	     8668.3399
        773.00	     179.23007	     56.444213	     8668.6443
        774.00	     174.45917	     47.230032	     8669.0575
        775.00	     179.89063	     27.494193	     8669.5762
        776.00	     208.74286	     37.531351	     8669.8807
        777.00	     190.44562	     44.161188	     8670.1855
        778.00	     171.40272	     38.824329	     8670.7072
        779.00	     194.46068	     44.178705	     8671.0115
        780.00	     178.77587	     61.432954	     8671.4249
        781.00	     191.42598	     37.720870	     8671.9380
        782.00	     207.65563	     36.843756	     8672.4502
        783.00	     173.66895	     60.808457	     8672.7550
        784.00	     179.11349	     46.439429	     8673.2703
        785.00	     199.24731	     39.651205	     8673.5753
        786.00	     253.46262	     63.236228	     8674.0905
        787.00	     199.14411	     40.403817	     8674.3953
        788.00	     197.13111	     39.126429	     8674.9110
        789.00	     148.70340	     22.573120	     8675.2155
        790.00	     173.21527	     51.799519	     8675.7311
        791.00	     257.25967	     57.219541	     8676.0355
        792.00	     164.50866	     42.997676	     8676.4487
        793.00	     257.60989	     31.484021	     8676.9615
        794.00	     246.40000	     52.051257	     8677.2662
        795.00	     173.15339	     40.240116	     8677.7850
        796.00	     147.15826	     30.316037	     8678.0892
        797.00	     173.95838	     48.187732	     8678.5024
        798.00	     204.56163	     34.600683	     8679.0183
        799.00	     177.75887	     29.649591	     8679.5308
        800.00	     153.85188	     44.386414	     8679.8353
