Sample:	
Run Date:	20-02-2020 21:25:49
Operator:	Hitachi spectro
Comment:	

Instrument
Model:	U-2010 Spectrophotometer
Serial Number:	9709-014
ROM Version:	2550 00

Instrument Parameters
Measurement Type:	Wavelength Scan
Data Mode:	Abs
Starting Wavelength:	700.0 nm
Ending Wavelength:	200.0 nm
Scan Speed:	100 nm/min
Sampling Interval:	1.0 nm
Slit Width:	2 nm
Lamp Change:	370.0 nm
Baseline Correction:	System
Response:	Medium

Peak Integration
Area Method:	Rectangular
Threshold:	10.0% based on 1 highest peaks
Peak Width:	10.0 nm
Peaks
Peak #	Start (nm)	Apex (nm)	End (nm)	Height (Abs)	Area (Abs*nm)
1	249.0	236.0	202.0	2.0089	52.0826

Data Points
nm	Abs
600.0	0.0015
599.0	0.0015
598.0	0.0015
597.0	0.0014
596.0	0.0016
595.0	0.0017
594.0	0.0016
593.0	0.0015
592.0	0.0015
591.0	0.0015
590.0	0.0014
589.0	0.0015
588.0	0.0015
587.0	0.0015
586.0	0.0015
585.0	0.0015
584.0	0.0015
583.0	0.0015
582.0	0.0016
581.0	0.0017
580.0	0.0017
579.0	0.0017
578.0	0.0017
577.0	0.0017
576.0	0.0018
575.0	0.0019
574.0	0.0018
573.0	0.0018
572.0	0.0019
571.0	0.0019
570.0	0.0020
569.0	0.0020
568.0	0.0020
567.0	0.0020
566.0	0.0020
565.0	0.0020
564.0	0.0020
563.0	0.0020
562.0	0.0020
561.0	0.0021
560.0	0.0024
559.0	0.0024
558.0	0.0024
557.0	0.0024
556.0	0.0024
555.0	0.0024
554.0	0.0026
553.0	0.0027
552.0	0.0029
551.0	0.0029
550.0	0.0029
549.0	0.0030
548.0	0.0032
547.0	0.0032
546.0	0.0033
545.0	0.0035
544.0	0.0035
543.0	0.0035
542.0	0.0035
541.0	0.0035
540.0	0.0036
539.0	0.0038
538.0	0.0041
537.0	0.0041
536.0	0.0041
535.0	0.0041
534.0	0.0044
533.0	0.0044
532.0	0.0045
531.0	0.0047
530.0	0.0049
529.0	0.0049
528.0	0.0049
527.0	0.0049
526.0	0.0050
525.0	0.0052
524.0	0.0056
523.0	0.0056
522.0	0.0058
521.0	0.0059
520.0	0.0061
519.0	0.0061
518.0	0.0061
517.0	0.0061
516.0	0.0062
515.0	0.0064
514.0	0.0064
513.0	0.0064
512.0	0.0064
511.0	0.0064
510.0	0.0064
509.0	0.0064
508.0	0.0064
507.0	0.0064
506.0	0.0064
505.0	0.0064
504.0	0.0064
503.0	0.0064
502.0	0.0064
501.0	0.0064
500.0	0.0062
499.0	0.0061
498.0	0.0061
497.0	0.0061
496.0	0.0061
495.0	0.0060
494.0	0.0061
493.0	0.0061
492.0	0.0061
491.0	0.0061
490.0	0.0059
489.0	0.0058
488.0	0.0058
487.0	0.0058
486.0	0.0056
485.0	0.0056
484.0	0.0056
483.0	0.0056
482.0	0.0056
481.0	0.0055
480.0	0.0055
479.0	0.0055
478.0	0.0055
477.0	0.0053
476.0	0.0052
475.0	0.0052
474.0	0.0052
473.0	0.0052
472.0	0.0052
471.0	0.0052
470.0	0.0050
469.0	0.0049
468.0	0.0049
467.0	0.0049
466.0	0.0049
465.0	0.0049
464.0	0.0049
463.0	0.0049
462.0	0.0049
461.0	0.0049
460.0	0.0048
459.0	0.0046
458.0	0.0045
457.0	0.0045
456.0	0.0044
455.0	0.0044
454.0	0.0044
453.0	0.0044
452.0	0.0043
451.0	0.0041
450.0	0.0039
449.0	0.0037
448.0	0.0037
447.0	0.0037
446.0	0.0037
445.0	0.0037
444.0	0.0037
443.0	0.0036
442.0	0.0035
441.0	0.0035
440.0	0.0035
439.0	0.0035
438.0	0.0035
437.0	0.0035
436.0	0.0035
435.0	0.0035
434.0	0.0035
433.0	0.0035
432.0	0.0035
431.0	0.0035
430.0	0.0033
429.0	0.0033
428.0	0.0035
427.0	0.0035
426.0	0.0033
425.0	0.0032
424.0	0.0032
423.0	0.0032
422.0	0.0032
421.0	0.0030
420.0	0.0030
419.0	0.0031
418.0	0.0030
417.0	0.0029
416.0	0.0029
415.0	0.0029
414.0	0.0029
413.0	0.0027
412.0	0.0029
411.0	0.0029
410.0	0.0029
409.0	0.0029
408.0	0.0029
407.0	0.0029
406.0	0.0029
405.0	0.0027
404.0	0.0027
403.0	0.0027
402.0	0.0027
401.0	0.0026
400.0	0.0027
399.0	0.0027
398.0	0.0027
397.0	0.0026
396.0	0.0026
395.0	0.0027
394.0	0.0029
393.0	0.0029
392.0	0.0027
391.0	0.0027
390.0	0.0029
389.0	0.0029
388.0	0.0029
387.0	0.0027
386.0	0.0029
385.0	0.0029
384.0	0.0030
383.0	0.0032
382.0	0.0032
381.0	0.0020
380.0	-0.0007
379.0	-0.0023
378.0	-0.0026
377.0	-0.0021
376.0	-0.0018
375.0	-0.0018
374.0	-0.0022
373.0	-0.0023
372.0	-0.0018
371.0	-0.0002
370.0	0.0024
369.0	0.0035
368.0	0.0035
367.0	0.0035
366.0	0.0034
365.0	0.0034
364.0	0.0034
363.0	0.0035
362.0	0.0035
361.0	0.0035
360.0	0.0035
359.0	0.0036
358.0	0.0036
357.0	0.0037
356.0	0.0038
355.0	0.0041
354.0	0.0043
353.0	0.0044
352.0	0.0041
351.0	0.0043
350.0	0.0045
349.0	0.0046
348.0	0.0047
347.0	0.0049
346.0	0.0052
345.0	0.0053
344.0	0.0058
343.0	0.0062
342.0	0.0066
341.0	0.0072
340.0	0.0076
339.0	0.0082
338.0	0.0089
337.0	0.0097
336.0	0.0106
335.0	0.0115
334.0	0.0122
333.0	0.0131
332.0	0.0140
331.0	0.0149
330.0	0.0157
329.0	0.0163
328.0	0.0167
327.0	0.0174
326.0	0.0179
325.0	0.0181
324.0	0.0183
323.0	0.0186
322.0	0.0191
321.0	0.0193
320.0	0.0193
319.0	0.0194
318.0	0.0194
317.0	0.0194
316.0	0.0194
315.0	0.0193
314.0	0.0191
313.0	0.0191
312.0	0.0190
311.0	0.0187
310.0	0.0185
309.0	0.0185
308.0	0.0183
307.0	0.0181
306.0	0.0182
305.0	0.0182
304.0	0.0182
303.0	0.0182
302.0	0.0181
301.0	0.0182
300.0	0.0182
299.0	0.0183
298.0	0.0185
297.0	0.0189
296.0	0.0192
295.0	0.0197
294.0	0.0203
293.0	0.0209
292.0	0.0212
291.0	0.0219
290.0	0.0226
289.0	0.0235
288.0	0.0245
287.0	0.0254
286.0	0.0262
285.0	0.0271
284.0	0.0280
283.0	0.0287
282.0	0.0294
281.0	0.0302
280.0	0.0309
279.0	0.0317
278.0	0.0325
277.0	0.0334
276.0	0.0343
275.0	0.0351
274.0	0.0360
273.0	0.0369
272.0	0.0378
271.0	0.0386
270.0	0.0396
269.0	0.0405
268.0	0.0413
267.0	0.0425
266.0	0.0437
265.0	0.0451
264.0	0.0466
263.0	0.0487
262.0	0.0510
261.0	0.0539
260.0	0.0571
259.0	0.0607
258.0	0.0649
257.0	0.0702
256.0	0.0765
255.0	0.0841
254.0	0.0937
253.0	0.1060
252.0	0.1218
251.0	0.1427
250.0	0.1701
249.0	0.2057
248.0	0.2527
247.0	0.3143
246.0	0.3946
245.0	0.4994
244.0	0.6360
243.0	0.8122
242.0	1.0405
241.0	1.3288
240.0	1.6778
239.0	2.0706
238.0	2.4318
237.0	2.6576
236.0	2.6990
235.0	2.6990
234.0	2.6990
233.0	2.6990
232.0	2.6990
231.0	2.6990
230.0	2.6990
229.0	2.6990
228.0	2.6990
227.0	2.6990
226.0	2.6576
225.0	2.6576
224.0	2.6576
223.0	2.6576
222.0	2.6576
221.0	2.6576
220.0	2.6576
219.0	2.6576
218.0	2.6576
217.0	2.6198
216.0	2.6198
215.0	2.5686
214.0	2.5686
213.0	2.5376
212.0	2.5376
211.0	2.4949
210.0	2.4685
209.0	2.4318
208.0	2.4089
207.0	2.3565
206.0	2.3098
205.0	2.2676
204.0	2.2291
203.0	2.2007
202.0	2.1367
201.0	2.0706
200.0	2.0315
