Title=200311_em_EtOH_2,0uM_AT532
Comment=
Signature=ISS_Experiment_Ver_1_0
Timestamp=Wed Mar 11 16:11:05 2020
Product=Vinci2
SoftwareVersion=BETA.2.4
BuildNumber=234
RealTimeStart=18896.723852

AcquisitionType=Photon Counting
AcquisitionFormat=L
AcquisitionSide=Right
Detector Gains=(0.0, 0.0)

Measurable=Intensity
MaxIterations=10

RightEmissionWavelengthBandwidth=8.0
ExcitationWavelengthBandwidth=8.0
Visualization=Y:Intensity,X:EmissionWavelength,PlotType:2D


EmissionWavelength=type:numeric,unit:nm,from:400.0,to:800.0,step:1.0
ExcitationWavelength=type:numeric,unit:nm,fixed:537.0

Space=EmissionWavelength
Columns=EmissionWavelength,Intensity,IntensityStdError,RealTime
[Data]
        400.00	     20.171641	     1.8621876	     18905.769
        401.00	     20.567313	     1.5344078	     18907.259
        402.00	     21.097539	    0.95167480	     18908.459
        403.00	     20.911668	     1.6020654	     18909.669
        404.00	     22.363707	     2.3371278	     18910.879
        405.00	     21.539934	     1.7263201	     18912.089
        406.00	     20.570311	     2.6736177	     18913.299
        407.00	     18.274746	     1.4362704	     18914.509
        408.00	     20.292065	     1.4948897	     18915.719
        409.00	     22.318372	     1.4434447	     18916.929
        410.00	     21.299187	     2.0420793	     18918.139
        411.00	     21.642458	     1.4137448	     18919.349
        412.00	     20.521172	     1.7568299	     18920.559
        413.00	     20.187708	     1.6234025	     18921.769
        414.00	     23.033181	     1.3993887	     18922.979
        415.00	     21.253175	     1.5346709	     18924.189
        416.00	     23.096495	    0.93591720	     18925.399
        417.00	     21.976632	     1.0387798	     18926.609
        418.00	     21.785005	     1.7997988	     18927.819
        419.00	     21.242464	     1.6836628	     18929.029
        420.00	     21.055596	    0.99467895	     18930.239
        421.00	     25.603665	     1.9322394	     18931.449
        422.00	     22.204194	     1.2655240	     18932.659
        423.00	     20.833989	     1.9567835	     18933.869
        424.00	     23.836939	     1.5068159	     18935.079
        425.00	     21.857678	     1.5917804	     18936.289
        426.00	     23.513043	     1.7132250	     18937.499
        427.00	     26.279337	     1.8246081	     18938.709
        428.00	     27.726122	     2.2788854	     18939.919
        429.00	     26.151855	     1.7403966	     18941.129
        430.00	     28.376054	     1.7019020	     18942.339
        431.00	     23.068571	     1.3106160	     18943.549
        432.00	     29.283302	     2.0238478	     18944.759
        433.00	     27.474605	     1.3187252	     18945.969
        434.00	     26.605437	     2.2255874	     18947.179
        435.00	     28.371200	     1.7155463	     18948.389
        436.00	     27.591180	     1.6612555	     18949.609
        437.00	     31.287002	     2.2322821	     18950.809
        438.00	     31.443356	     1.2705278	     18952.019
        439.00	     35.774559	     2.0447219	     18953.239
        440.00	     28.763879	     1.8006118	     18954.439
        441.00	     30.341948	     2.4989398	     18955.649
        442.00	     31.207615	     1.8009641	     18956.859
        443.00	     33.332887	     1.8063219	     18958.069
        444.00	     34.063071	     1.8007408	     18959.279
        445.00	     38.109455	     1.4663387	     18960.489
        446.00	     35.061535	     1.3467672	     18961.699
        447.00	     36.210187	     2.1802363	     18962.909
        448.00	     36.561522	     2.4921432	     18964.119
        449.00	     40.918419	     2.6691047	     18965.329
        450.00	     40.983824	     1.6859731	     18966.539
        451.00	     38.792056	     1.3060350	     18967.749
        452.00	     42.743804	     2.4579582	     18968.959
        453.00	     44.655245	     1.4212043	     18970.169
        454.00	     44.015177	     1.5989087	     18971.379
        455.00	     46.290507	     1.7826030	     18972.589
        456.00	     44.216844	     1.3919663	     18973.799
        457.00	     45.471435	     2.3363982	     18975.009
        458.00	     44.147289	    0.88838176	     18976.219
        459.00	     44.218338	     2.3184046	     18977.429
        460.00	     47.665079	     2.1883866	     18978.639
        461.00	     47.259776	     2.6251660	     18979.849
        462.00	     48.819055	     1.6342706	     18981.059
        463.00	     49.256789	     1.9026423	     18982.269
        464.00	     49.258307	     2.1355347	     18983.479
        465.00	     50.028118	     2.7549576	     18984.689
        466.00	     50.519603	     2.0279703	     18985.899
        467.00	     51.696178	     2.3200152	     18987.109
        468.00	     50.097213	     2.0062244	     18988.319
        469.00	     52.796898	     2.4417180	     18989.529
        470.00	     57.894810	     2.0103631	     18990.739
        471.00	     57.249302	     2.1824650	     18991.948
        472.00	     56.385355	     2.3536278	     18993.159
        473.00	     54.380800	     1.7729794	     18994.369
        474.00	     51.964604	     1.6314997	     18995.579
        475.00	     55.605074	     1.1524368	     18996.788
        476.00	     61.532243	     3.3467244	     18997.999
        477.00	     62.143846	     2.8291261	     18999.209
        478.00	     60.231244	     1.0175286	     19000.419
        479.00	     61.447536	     1.9988656	     19001.628
        480.00	     67.179512	     2.5053568	     19002.839
        481.00	     63.411002	     1.9945937	     19004.049
        482.00	     67.869597	     1.9270952	     19005.259
        483.00	     63.762617	     2.0649966	     19006.469
        484.00	     65.041151	     2.7425359	     19007.678
        485.00	     70.615819	     2.4848938	     19008.889
        486.00	     72.223508	     2.2749856	     19010.098
        487.00	     75.495826	     3.8170904	     19011.309
        488.00	     77.620051	     2.2341155	     19012.518
        489.00	     77.456277	     1.6427949	     19013.728
        490.00	     80.038082	     3.1142402	     19014.938
        491.00	     78.973964	     4.2132608	     19016.159
        492.00	     85.975149	     3.0631155	     19017.359
        493.00	     87.812208	     4.0334639	     19018.568
        494.00	     99.183251	     2.0746867	     19019.778
        495.00	     97.972144	     2.1377424	     19020.988
        496.00	     104.00356	     1.4951306	     19022.208
        497.00	     121.48357	     3.7240834	     19023.408
        498.00	     128.07541	     4.6201771	     19024.618
        499.00	     139.30892	     3.6509442	     19025.828
        500.00	     152.76941	     3.6183926	     19027.038
        501.00	     170.06597	     4.3638893	     19028.248
        502.00	     195.44889	     5.8086317	     19029.458
        503.00	     228.48991	     4.6961405	     19030.668
        504.00	     243.75207	     5.2332826	     19031.888
        505.00	     275.98425	     3.5351092	     19033.088
        506.00	     314.13059	     4.1337659	     19034.298
        507.00	     352.46874	     6.0029848	     19035.508
        508.00	     397.25001	     6.1264174	     19036.718
        509.00	     445.78491	     8.8646797	     19037.928
        510.00	     514.60184	     7.2939700	     19039.138
        511.00	     563.69620	     4.5167199	     19040.348
        512.00	     664.13141	     4.4562685	     19041.558
        513.00	     748.18696	     5.8519219	     19042.768
        514.00	     852.99812	     6.8590680	     19043.978
        515.00	     990.43871	     5.2423876	     19045.188
        516.00	     1155.5900	     8.1399240	     19046.398
        517.00	     1362.7537	     12.709791	     19047.608
        518.00	     1589.2125	     10.501300	     19048.818
        519.00	     1921.2373	     16.238562	     19050.028
        520.00	     2307.3693	     10.551997	     19051.238
        521.00	     2775.2262	     11.470003	     19052.448
        522.00	     3362.8848	     14.608324	     19053.658
        523.00	     4072.3160	     21.652659	     19054.868
        524.00	     4983.7711	     19.678026	     19056.078
        525.00	     6017.8247	     17.895783	     19057.288
        526.00	     7393.0967	     23.068000	     19058.498
        527.00	     9022.1273	     36.987416	     19059.708
        528.00	     11030.046	     23.450143	     19060.918
        529.00	     13323.861	     27.286016	     19062.128
        530.00	     16161.030	     46.933570	     19063.338
        531.00	     19541.842	     46.669353	     19064.548
        532.00	     23497.769	     49.240141	     19065.758
        533.00	     27989.655	     62.238176	     19066.968
        534.00	     33231.482	     34.167840	     19068.178
        535.00	     38931.772	     52.812678	     19069.388
        536.00	     45510.469	     47.640532	     19070.598
        537.00	     52413.142	     70.445641	     19071.808
        538.00	     60167.691	     87.401676	     19073.018
        539.00	     68209.861	     70.761579	     19074.228
        540.00	     76264.523	     83.366180	     19075.438
        541.00	     84862.108	     59.540341	     19076.648
        542.00	     93456.092	     37.773053	     19077.858
        543.00	     101814.87	     69.965131	     19079.068
        544.00	     110177.34	     106.46428	     19080.278
        545.00	     117904.76	     99.211937	     19081.488
        546.00	     125061.37	     73.857850	     19086.108
        547.00	     131430.76	     118.61636	     19087.318
        548.00	     137611.55	     78.004960	     19088.528
        549.00	     143023.25	     60.148380	     19089.738
        550.00	     147759.00	     62.605327	     19090.948
        551.00	     151780.32	     86.363322	     19092.158
        552.00	     155369.72	     72.063431	     19093.368
        553.00	     158635.95	     70.524502	     19094.578
        554.00	     161009.20	     77.071136	     19095.788
        555.00	     163617.22	     70.617124	     19096.998
        556.00	     165110.63	     102.85830	     19098.208
        557.00	     166833.63	     78.736397	     19099.418
        558.00	     167923.37	     91.261135	     19100.628
        559.00	     168959.53	     69.765068	     19101.838
        560.00	     169223.09	     108.05043	     19103.048
        561.00	     169417.54	     88.650859	     19104.258
        562.00	     169440.96	     76.987764	     19105.468
        563.00	     168669.60	     83.774637	     19106.678
        564.00	     167949.02	     70.004448	     19107.888
        565.00	     166749.89	     85.926662	     19109.098
        566.00	     165396.07	     53.743216	     19110.308
        567.00	     163537.41	     99.964906	     19111.518
        568.00	     161396.09	     72.181859	     19112.728
        569.00	     159296.40	     91.118854	     19113.938
        570.00	     156190.95	     100.68431	     19115.148
        571.00	     153491.91	     74.968273	     19116.358
        572.00	     150312.16	     105.52683	     19117.568
        573.00	     147348.78	     71.090578	     19118.778
        574.00	     143612.12	     91.493140	     19119.988
        575.00	     140828.23	     90.654812	     19121.198
        576.00	     136827.32	     113.83727	     19122.408
        577.00	     133143.13	     101.48170	     19123.618
        578.00	     129239.35	     99.535438	     19124.828
        579.00	     125698.83	     128.28124	     19126.048
        580.00	     122078.66	     92.869823	     19127.248
        581.00	     118249.24	     127.45321	     19128.458
        582.00	     114413.48	     128.77615	     19129.668
        583.00	     111037.38	     80.400455	     19130.878
        584.00	     107544.09	     99.911365	     19132.088
        585.00	     104516.45	     110.57788	     19133.298
        586.00	     101474.33	     106.75558	     19134.508
        587.00	     98741.834	     143.14974	     19135.718
        588.00	     95895.696	     114.80962	     19136.928
        589.00	     93767.318	     67.227903	     19138.138
        590.00	     91543.732	     83.253479	     19139.348
        591.00	     89524.432	     99.989443	     19140.558
        592.00	     87714.805	     117.86096	     19141.768
        593.00	     85883.784	     91.596668	     19142.978
        594.00	     84353.737	     53.542282	     19144.188
        595.00	     83188.073	     94.436476	     19145.398
        596.00	     81922.504	     82.119591	     19146.608
        597.00	     81007.268	     86.748673	     19147.818
        598.00	     79743.928	     109.87279	     19149.038
        599.00	     78724.536	     93.563949	     19150.238
        600.00	     77772.558	     76.968776	     19151.448
        601.00	     76815.946	     102.98135	     19152.658
        602.00	     75843.050	     75.306494	     19153.868
        603.00	     74829.836	     84.764697	     19155.078
        604.00	     73835.228	     68.646176	     19156.287
        605.00	     72778.374	     95.286602	     19157.498
        606.00	     71722.560	     137.70473	     19158.708
        607.00	     70341.612	     95.042124	     19159.918
        608.00	     68938.146	     48.655313	     19161.128
        609.00	     67964.985	     81.428820	     19162.338
        610.00	     66693.395	     74.363026	     19163.548
        611.00	     65184.188	     104.08979	     19164.757
        612.00	     63621.381	     101.05612	     19165.968
        613.00	     61982.839	     78.545474	     19167.177
        614.00	     60539.112	     121.95567	     19168.388
        615.00	     58849.084	     132.23694	     19169.598
        616.00	     57050.472	     32.414091	     19170.807
        617.00	     55404.487	     64.150125	     19172.017
        618.00	     53832.470	     81.048629	     19173.227
        619.00	     51976.704	     92.099157	     19174.437
        620.00	     50546.998	     91.214485	     19175.647
        621.00	     48561.962	     103.02996	     19176.857
        622.00	     46962.132	     98.131848	     19178.077
        623.00	     45424.308	     61.515364	     19179.277
        624.00	     43736.580	     110.13477	     19180.487
        625.00	     42150.114	     53.559205	     19181.697
        626.00	     40792.549	     87.462576	     19182.908
        627.00	     39091.595	     59.289526	     19184.117
        628.00	     37599.403	     86.375210	     19185.327
        629.00	     36321.550	     76.093627	     19186.537
        630.00	     34818.709	     81.757630	     19187.747
        631.00	     33398.474	     69.065923	     19188.958
        632.00	     32171.486	     51.615400	     19190.167
        633.00	     30773.528	     57.927986	     19191.377
        634.00	     29538.822	     44.117881	     19192.587
        635.00	     28407.301	     53.969768	     19193.797
        636.00	     27373.533	     65.585224	     19195.007
        637.00	     26246.511	     65.456895	     19196.217
        638.00	     25156.176	     82.184988	     19197.427
        639.00	     24193.414	     86.122190	     19198.637
        640.00	     23319.439	     87.466552	     19199.847
        641.00	     22379.649	     43.331122	     19201.057
        642.00	     21462.313	     60.624337	     19202.267
        643.00	     20785.771	     67.400329	     19203.477
        644.00	     20082.936	     38.799287	     19204.687
        645.00	     19354.910	     61.464997	     19205.897
        646.00	     18859.705	     50.808713	     19207.107
        647.00	     18125.657	     71.728904	     19208.317
        648.00	     17546.789	     40.872320	     19209.528
        649.00	     16826.794	     40.242590	     19210.737
        650.00	     16396.920	     55.534303	     19211.947
        651.00	     15828.340	     49.786148	     19213.158
        652.00	     15392.762	     41.783872	     19214.367
        653.00	     14926.506	     53.390475	     19215.577
        654.00	     14381.076	     32.741689	     19216.797
        655.00	     13988.825	     28.158457	     19217.997
        656.00	     13699.559	     43.785261	     19219.207
        657.00	     13321.969	     60.568070	     19220.417
        658.00	     12958.534	     53.172958	     19221.627
        659.00	     12603.830	     45.203042	     19222.837
        660.00	     12107.074	     46.902343	     19224.047
        661.00	     11902.222	     56.290258	     19225.258
        662.00	     11528.803	     47.252395	     19226.467
        663.00	     11193.198	     56.852145	     19227.677
        664.00	     11078.295	     56.290952	     19228.887
        665.00	     10628.572	     49.695840	     19230.097
        666.00	     10571.187	     63.262490	     19231.307
        667.00	     10209.449	     61.099570	     19232.517
        668.00	     9907.4254	     49.066547	     19233.727
        669.00	     9669.2601	     57.097786	     19234.937
        670.00	     9490.5625	     46.983418	     19236.147
        671.00	     9032.7382	     65.950279	     19237.357
        672.00	     8958.0592	     37.340575	     19238.567
        673.00	     8735.7217	     47.081772	     19239.777
        674.00	     8513.6150	     29.121250	     19240.987
        675.00	     8246.2817	     64.571048	     19242.197
        676.00	     8098.8967	     58.129755	     19243.407
        677.00	     7853.5879	     44.412101	     19244.617
        678.00	     7435.3564	     38.614190	     19245.827
        679.00	     7264.0280	     43.793997	     19247.037
        680.00	     7171.6495	     63.637271	     19248.247
        681.00	     6857.3268	     44.063217	     19249.457
        682.00	     6639.6462	     64.537916	     19250.667
        683.00	     6420.1108	     36.918622	     19251.877
        684.00	     6122.5667	     40.031730	     19253.087
        685.00	     6083.8768	     58.294334	     19254.297
        686.00	     5759.7620	     56.749170	     19255.507
        687.00	     5619.0418	     53.678628	     19256.717
        688.00	     5476.4660	     29.195982	     19257.927
        689.00	     5207.0924	     26.771196	     19259.147
        690.00	     5105.8333	     51.742746	     19260.347
        691.00	     4890.1875	     55.860457	     19261.557
        692.00	     4704.7068	     49.970671	     19262.767
        693.00	     4564.0093	     24.757097	     19263.977
        694.00	     4438.5985	     56.384813	     19265.187
        695.00	     4262.6396	     41.385331	     19269.807
        696.00	     4124.8231	     45.535281	     19271.017
        697.00	     4070.4492	     31.646937	     19272.227
        698.00	     3811.4565	     32.886621	     19273.437
        699.00	     3747.3193	     46.535703	     19274.647
        700.00	     3618.6616	     40.471190	     19275.857
        701.00	     3515.3332	     32.562084	     19277.067
        702.00	     3339.5366	     39.457400	     19278.277
        703.00	     3309.9645	     38.231527	     19279.487
        704.00	     3136.8754	     32.215571	     19280.707
        705.00	     3049.9710	     33.179467	     19281.907
        706.00	     2946.0373	     55.728033	     19283.117
        707.00	     2956.7180	     33.854005	     19284.327
        708.00	     2775.0195	     30.206162	     19285.537
        709.00	     2712.6872	     35.356326	     19286.747
        710.00	     2605.5949	     35.714397	     19287.957
        711.00	     2627.9462	     44.157722	     19289.167
        712.00	     2455.3078	     35.590695	     19290.377
        713.00	     2370.7172	     37.664028	     19291.587
        714.00	     2293.1432	     26.881607	     19292.797
        715.00	     2231.3081	     32.740762	     19294.007
        716.00	     2130.4254	     42.174924	     19295.217
        717.00	     2155.6210	     36.995091	     19296.427
        718.00	     2147.0615	     38.377181	     19297.637
        719.00	     2042.7472	     29.551351	     19298.847
        720.00	     2040.8082	     38.343963	     19300.057
        721.00	     1928.5857	     52.909565	     19301.267
        722.00	     1846.6158	     26.850434	     19302.477
        723.00	     1823.6745	     35.248466	     19303.687
        724.00	     1775.5468	     45.837102	     19304.897
        725.00	     1751.6812	     42.292445	     19306.107
        726.00	     1701.7115	     43.722136	     19307.317
        727.00	     1706.8360	     38.563504	     19308.527
        728.00	     1577.1124	     48.596569	     19309.737
        729.00	     1600.0600	     48.410003	     19310.947
        730.00	     1635.0593	     33.710543	     19312.157
        731.00	     1505.6140	     47.511545	     19313.367
        732.00	     1421.3322	     37.087031	     19314.577
        733.00	     1431.3236	     33.972071	     19315.787
        734.00	     1415.7754	     54.059284	     19316.997
        735.00	     1301.7480	     37.222860	     19318.207
        736.00	     1399.8263	     38.304385	     19319.417
        737.00	     1298.5178	     37.463614	     19320.627
        738.00	     1390.5682	     54.547276	     19321.837
        739.00	     1245.1831	     42.293509	     19323.047
        740.00	     1262.9682	     34.526725	     19324.257
        741.00	     1252.7470	     11.948723	     19325.467
        742.00	     1177.1418	     43.059608	     19326.677
        743.00	     1167.0617	     32.044660	     19327.887
        744.00	     1036.7926	     32.794334	     19329.096
        745.00	     1158.0990	     57.021913	     19330.307
        746.00	     1140.7400	     47.012211	     19331.516
        747.00	     1111.4231	     43.665478	     19332.727
        748.00	     1073.3491	     35.849340	     19333.936
        749.00	     1113.2677	     38.012928	     19335.146
        750.00	     988.97154	     47.203553	     19336.356
        751.00	     1021.1266	     49.776974	     19337.567
        752.00	     980.85979	     33.621096	     19338.786
        753.00	     1008.0127	     60.345724	     19339.986
        754.00	     953.12041	     30.719340	     19341.196
        755.00	     1006.1333	     45.532563	     19342.417
        756.00	     891.36633	     40.470217	     19343.616
        757.00	     887.45737	     39.532798	     19344.826
        758.00	     932.02342	     35.688398	     19346.036
        759.00	     853.85292	     41.483873	     19347.246
        760.00	     749.00094	     38.455289	     19348.457
        761.00	     888.29151	     46.025931	     19349.667
        762.00	     789.79338	     47.987368	     19350.877
        763.00	     731.24387	     40.216968	     19352.086
        764.00	     761.29143	     43.389875	     19353.296
        765.00	     730.92351	     65.707374	     19354.506
        766.00	     779.59461	     56.066851	     19355.716
        767.00	     678.17690	     43.343242	     19356.927
        768.00	     810.26509	     41.572820	     19358.136
        769.00	     721.30007	     41.307378	     19359.346
        770.00	     663.55895	     52.387520	     19360.557
        771.00	     718.64679	     39.158465	     19361.766
        772.00	     709.11401	     58.440030	     19362.986
        773.00	     625.66395	     46.280938	     19364.186
        774.00	     638.79917	     50.288311	     19365.396
        775.00	     683.31590	     47.410623	     19366.606
        776.00	     666.21503	     42.938175	     19367.816
        777.00	     591.20350	     45.513150	     19369.026
        778.00	     606.82093	     37.573842	     19370.236
        779.00	     530.22014	     31.282540	     19371.446
        780.00	     539.15411	     42.609550	     19372.656
        781.00	     562.84953	     53.025610	     19373.867
        782.00	     478.04056	     57.494045	     19375.076
        783.00	     520.27716	     65.368384	     19376.286
        784.00	     558.71614	     44.970028	     19377.496
        785.00	     478.04484	     44.348709	     19378.706
        786.00	     530.92171	     77.850577	     19379.916
        787.00	     452.80675	     66.492122	     19381.126
        788.00	     521.86260	     53.196362	     19382.336
        789.00	     549.35506	     51.829007	     19383.546
        790.00	     511.10156	     65.501319	     19384.756
        791.00	     469.02830	     57.517406	     19385.966
        792.00	     401.78076	     47.891798	     19387.176
        793.00	     433.07174	     48.676927	     19388.386
        794.00	     470.40000	     55.361439	     19389.596
        795.00	     423.35208	     65.991263	     19390.806
        796.00	     479.82986	     54.870569	     19392.016
        797.00	     425.74026	     85.681527	     19393.226
        798.00	     292.86162	     27.858196	     19394.436
        799.00	     446.54749	     49.269768	     19395.646
        800.00	     305.58654	     51.068223	     19396.856
