Title=200311_em_EtOH_2,0uM_ST488
Comment=
Signature=ISS_Experiment_Ver_1_0
Timestamp=Wed Mar 11 16:00:37 2020
Product=Vinci2
SoftwareVersion=BETA.2.4
BuildNumber=234
RealTimeStart=18268.7173825

AcquisitionType=Photon Counting
AcquisitionFormat=L
AcquisitionSide=Right
Detector Gains=(0.0, 0.0)

Measurable=Intensity
MaxIterations=10

RightEmissionWavelengthBandwidth=8.0
ExcitationWavelengthBandwidth=8.0
Visualization=Y:Intensity,X:EmissionWavelength,PlotType:2D


EmissionWavelength=type:numeric,unit:nm,from:400.0,to:800.0,step:1.0
ExcitationWavelength=type:numeric,unit:nm,fixed:504.0

Space=EmissionWavelength
Columns=EmissionWavelength,Intensity,IntensityStdError,RealTime
[Data]
        400.00	     2.1209039	     1.2052565	     18277.873
        401.00	     1.7694783	    0.93894576	     18279.354
        402.00	     1.5364512	     1.0460047	     18280.563
        403.00	     2.2168653	    0.91813045	     18281.773
        404.00	     1.6430478	     1.0864545	     18282.983
        405.00	     3.6925601	     1.2713652	     18284.193
        406.00	     4.5913844	     2.2716995	     18285.403
        407.00	     2.8830966	     1.9590821	     18286.613
        408.00	     3.2195232	     1.5134015	     18287.823
        409.00	     1.8579762	     1.2660714	     18289.033
        410.00	     1.2915464	     1.5053790	     18290.243
        411.00	     1.0651262	     1.3305704	     18291.453
        412.00	     1.6326236	     2.0125906	     18292.663
        413.00	    0.95267833	     1.3962170	     18293.873
        414.00	     2.0877366	     1.5241568	     18295.083
        415.00	     1.8639149	     1.3468974	     18296.293
        416.00	    0.95571703	     1.3159580	     18297.503
        417.00	     2.0951815	     1.5106371	     18298.713
        418.00	     2.7830058	     1.6641819	     18299.923
        419.00	    0.27409631	     1.7278431	     18301.133
        420.00	     4.1653462	     1.6290743	     18302.343
        421.00	     1.9977748	     1.1513313	     18303.554
        422.00	     2.6921147	     1.8507220	     18304.763
        423.00	     1.6575107	     1.7397392	     18305.973
        424.00	     3.7309991	     1.7673673	     18307.183
        425.00	   -0.30068763	     1.0089421	     18308.393
        426.00	     1.3204369	    0.72128062	     18309.613
        427.00	     1.7907159	    0.69444400	     18310.823
        428.00	     2.8425100	     1.3316638	     18312.024
        429.00	     4.2496765	     1.1829577	     18313.233
        430.00	     1.5712360	     1.2291744	     18314.443
        431.00	     5.1080407	     1.2337908	     18315.653
        432.00	     3.1172547	     1.2471364	     18316.863
        433.00	     2.7711455	     1.6126881	     18318.073
        434.00	     2.4229951	     1.5415255	     18319.283
        435.00	     1.7165768	     1.3034238	     18320.493
        436.00	     3.2727201	     1.4272124	     18321.703
        437.00	     6.8807431	     1.0304170	     18322.913
        438.00	     2.9395321	     1.7485832	     18324.123
        439.00	     1.2569440	     2.5016689	     18325.333
        440.00	     2.3545116	     1.8096784	     18326.543
        441.00	     1.5110046	     1.3471601	     18327.753
        442.00	    0.66086715	     1.0800856	     18328.963
        443.00	     2.3861919	     1.6198837	     18330.173
        444.00	     4.6157929	     1.5959589	     18331.383
        445.00	     4.6275766	     1.3459706	     18332.594
        446.00	     1.9147080	     1.9706561	     18333.803
        447.00	     3.5461011	     1.0562202	     18335.013
        448.00	     2.6887167	     1.0669213	     18336.223
        449.00	     2.4500535	     1.6417884	     18337.433
        450.00	     4.8723804	    0.93048930	     18338.643
        451.00	     2.4674291	     1.5640505	     18339.853
        452.00	     3.5065276	     2.0031328	     18341.063
        453.00	     6.0823523	     1.9624474	     18342.273
        454.00	     5.4728549	     1.8950806	     18343.483
        455.00	     1.7375148	     1.6108444	     18344.693
        456.00	     6.5738317	     1.9521449	     18345.903
        457.00	     2.1490822	     1.5893953	     18347.113
        458.00	     4.5333336	     2.2638728	     18348.323
        459.00	     6.1429068	     1.4926147	     18349.533
        460.00	     2.8413167	     2.3204488	     18350.743
        461.00	     3.6579601	     1.9010721	     18351.953
        462.00	     5.7022808	     1.5002737	     18353.163
        463.00	     1.9432815	     2.0297421	     18354.373
        464.00	     3.9895158	     1.7985294	     18355.583
        465.00	     4.2920298	     1.4615696	     18356.793
        466.00	     7.1935521	     1.5585468	     18358.003
        467.00	     9.2915263	     2.2441408	     18359.213
        468.00	     11.712479	     1.5727657	     18360.423
        469.00	     6.7424007	     2.2577283	     18361.633
        470.00	     8.1668042	     1.4622297	     18362.843
        471.00	     9.2219319	     2.0814295	     18364.053
        472.00	     11.957095	     1.9562332	     18365.263
        473.00	     9.8796532	     1.5745434	     18366.473
        474.00	     13.370507	     1.5601580	     18367.683
        475.00	     12.158208	     1.3716741	     18368.893
        476.00	     10.337417	     2.6384904	     18370.103
        477.00	     16.358240	     2.5486109	     18371.313
        478.00	     14.677711	     1.5067192	     18372.523
        479.00	     21.521338	     2.0580515	     18373.733
        480.00	     19.739531	     1.7845534	     18374.943
        481.00	     27.299479	     2.3738685	     18376.153
        482.00	     29.874608	     1.9982576	     18377.363
        483.00	     35.483972	     1.9724492	     18378.573
        484.00	     35.840858	     2.5788742	     18379.783
        485.00	     45.358844	     2.4619044	     18381.033
        486.00	     50.050431	     2.7449475	     18382.203
        487.00	     66.775288	     2.6232679	     18383.413
        488.00	     76.129746	     3.9191080	     18384.623
        489.00	     94.852707	     3.0463793	     18385.833
        490.00	     112.27303	     4.2308470	     18387.043
        491.00	     134.16097	     2.6851148	     18388.263
        492.00	     170.74474	     2.9363619	     18389.463
        493.00	     205.54443	     3.7120377	     18390.673
        494.00	     254.76293	     4.2343733	     18391.883
        495.00	     312.35066	     2.1645658	     18393.093
        496.00	     383.24420	     5.4401538	     18394.303
        497.00	     471.93831	     3.4400688	     18395.513
        498.00	     577.57019	     5.5332900	     18396.723
        499.00	     704.29537	     7.0713971	     18397.933
        500.00	     905.77478	     6.3739702	     18399.143
        501.00	     1159.5638	     8.4949959	     18400.353
        502.00	     1508.3815	     10.313480	     18401.563
        503.00	     1929.0366	     9.9999318	     18402.773
        504.00	     2378.0326	     10.859432	     18403.983
        505.00	     2765.9310	     16.880549	     18405.193
        506.00	     3041.5017	     14.771167	     18406.403
        507.00	     3378.2010	     16.930975	     18407.613
        508.00	     3632.7095	     16.939837	     18408.823
        509.00	     4037.2981	     23.006439	     18410.033
        510.00	     4571.7269	     16.721675	     18411.242
        511.00	     5182.1741	     19.145985	     18412.453
        512.00	     5810.1818	     18.172254	     18413.662
        513.00	     6595.4849	     13.195906	     18414.873
        514.00	     7331.7408	     17.650352	     18416.082
        515.00	     8120.4358	     34.406797	     18417.293
        516.00	     8915.2537	     35.216091	     18418.503
        517.00	     9761.8572	     19.061205	     18419.713
        518.00	     10580.018	     25.045866	     18420.923
        519.00	     11464.839	     28.724817	     18422.132
        520.00	     12261.549	     25.377236	     18423.342
        521.00	     13113.471	     37.853933	     18424.552
        522.00	     13727.406	     33.346766	     18425.762
        523.00	     14472.948	     28.789932	     18426.972
        524.00	     15119.794	     30.179183	     18428.183
        525.00	     15670.670	     23.013594	     18429.392
        526.00	     16143.138	     34.002698	     18430.602
        527.00	     16584.401	     32.631322	     18431.812
        528.00	     16928.545	     27.500197	     18433.022
        529.00	     17155.035	     36.243360	     18434.232
        530.00	     17336.879	     32.814004	     18435.442
        531.00	     17404.780	     24.442185	     18436.653
        532.00	     17456.054	     43.778517	     18437.862
        533.00	     17386.027	     41.223672	     18439.072
        534.00	     17238.937	     23.340774	     18440.282
        535.00	     17001.324	     29.706201	     18441.492
        536.00	     16803.074	     43.235221	     18442.702
        537.00	     16475.955	     45.364584	     18443.922
        538.00	     16184.700	     33.327043	     18445.123
        539.00	     15770.986	     32.476262	     18446.332
        540.00	     15335.983	     27.796957	     18447.542
        541.00	     14903.752	     28.026100	     18448.752
        542.00	     14463.700	     27.702316	     18449.962
        543.00	     14010.068	     36.242439	     18451.172
        544.00	     13494.148	     21.054197	     18452.382
        545.00	     12986.216	     39.271075	     18453.592
        546.00	     12630.424	     31.387924	     18458.212
        547.00	     12106.520	     32.737623	     18459.422
        548.00	     11681.751	     30.116636	     18460.632
        549.00	     11269.336	     22.492190	     18461.842
        550.00	     10862.742	     26.909036	     18463.052
        551.00	     10410.176	     37.193959	     18464.262
        552.00	     10019.084	     23.849041	     18465.472
        553.00	     9645.6067	     36.197435	     18466.682
        554.00	     9250.2136	     30.073624	     18467.892
        555.00	     8924.1464	     34.719413	     18469.102
        556.00	     8573.0834	     32.617852	     18470.312
        557.00	     8279.1179	     26.442787	     18471.522
        558.00	     8000.0637	     13.850864	     18472.732
        559.00	     7751.9535	     14.127753	     18473.942
        560.00	     7504.8700	     19.282205	     18475.152
        561.00	     7211.0217	     27.071588	     18476.362
        562.00	     6988.1229	     20.158913	     18477.573
        563.00	     6763.2182	     25.081423	     18478.782
        564.00	     6540.9422	     28.225743	     18479.992
        565.00	     6361.4778	     32.834567	     18481.202
        566.00	     6189.4433	     23.977225	     18482.422
        567.00	     6014.6069	     21.198061	     18483.622
        568.00	     5860.9405	     37.207439	     18484.832
        569.00	     5672.4065	     33.954580	     18486.042
        570.00	     5481.9414	     32.623312	     18487.252
        571.00	     5330.0500	     24.590478	     18488.462
        572.00	     5236.4288	     26.138952	     18489.672
        573.00	     5053.3979	     25.774710	     18490.882
        574.00	     4959.0672	     25.232918	     18492.092
        575.00	     4718.6201	     22.421186	     18493.302
        576.00	     4607.3774	     17.904689	     18494.522
        577.00	     4478.6279	     19.372569	     18495.722
        578.00	     4391.3082	     19.064707	     18496.932
        579.00	     4225.8885	     12.232119	     18498.142
        580.00	     4128.7417	     27.560706	     18499.352
        581.00	     3952.4495	     15.902140	     18500.562
        582.00	     3842.4954	     16.778583	     18501.772
        583.00	     3735.8806	     21.986933	     18502.982
        584.00	     3566.0879	     18.721027	     18504.192
        585.00	     3450.4527	     21.475465	     18505.402
        586.00	     3347.6922	     19.403171	     18506.622
        587.00	     3221.1673	     12.575648	     18507.832
        588.00	     3081.9412	     19.065051	     18509.042
        589.00	     3000.4199	     9.1183765	     18510.242
        590.00	     2857.3430	     23.025438	     18511.452
        591.00	     2755.5653	     13.630794	     18512.662
        592.00	     2681.1318	     18.854568	     18513.882
        593.00	     2562.0913	     13.450355	     18515.082
        594.00	     2484.1979	     13.934671	     18516.292
        595.00	     2371.3699	     20.775285	     18517.502
        596.00	     2275.5552	     19.352640	     18518.712
        597.00	     2186.5923	     14.075001	     18519.922
        598.00	     2087.9204	     15.123374	     18521.132
        599.00	     2041.1509	     14.816301	     18522.342
        600.00	     1942.8810	     18.903763	     18523.552
        601.00	     1859.0918	     14.093408	     18524.762
        602.00	     1794.9529	     10.548238	     18525.972
        603.00	     1732.1693	     11.800185	     18527.182
        604.00	     1647.5732	     23.855419	     18528.392
        605.00	     1585.5626	     11.589894	     18529.602
        606.00	     1534.0340	     15.628718	     18530.812
        607.00	     1489.2458	     15.100294	     18532.022
        608.00	     1418.2649	     13.188358	     18533.232
        609.00	     1346.1283	     8.9362031	     18534.442
        610.00	     1288.5591	     10.001142	     18535.652
        611.00	     1273.5623	     19.032471	     18536.862
        612.00	     1193.6941	     18.435091	     18538.072
        613.00	     1170.1802	     9.9858522	     18539.282
        614.00	     1136.9107	     8.9517889	     18540.492
        615.00	     1073.8657	     16.964335	     18541.702
        616.00	     1017.3763	     8.5158353	     18542.912
        617.00	     1009.0615	     11.425595	     18544.122
        618.00	     976.26030	     11.867616	     18545.332
        619.00	     952.82362	     9.2177803	     18546.542
        620.00	     911.28235	     8.2095406	     18547.752
        621.00	     848.55079	     11.011920	     18548.962
        622.00	     830.71106	     11.311146	     18550.172
        623.00	     779.33821	     16.118086	     18551.382
        624.00	     791.80407	     15.726848	     18552.592
        625.00	     761.57699	     13.281275	     18553.802
        626.00	     729.61439	     8.2717040	     18555.012
        627.00	     728.41807	     7.8670750	     18556.222
        628.00	     700.21497	     8.5760940	     18557.432
        629.00	     661.79380	     11.963310	     18558.642
        630.00	     650.44145	     14.966231	     18559.852
        631.00	     605.43426	     17.466556	     18561.062
        632.00	     603.10502	     11.368003	     18562.272
        633.00	     575.14193	     11.273186	     18563.482
        634.00	     550.75367	     10.803060	     18564.692
        635.00	     540.60556	     12.222664	     18565.902
        636.00	     541.02249	     10.877504	     18567.112
        637.00	     493.13483	     10.530171	     18568.322
        638.00	     499.16303	     8.3493741	     18569.532
        639.00	     479.31926	     11.463679	     18570.742
        640.00	     455.13593	     7.1024241	     18571.952
        641.00	     440.08166	     11.820042	     18573.162
        642.00	     429.77217	     10.488906	     18574.372
        643.00	     401.80751	     7.9630616	     18575.582
        644.00	     388.72285	     13.304906	     18576.791
        645.00	     389.86030	     7.1890146	     18578.002
        646.00	     364.75524	     13.397244	     18579.212
        647.00	     370.66416	     14.813053	     18580.422
        648.00	     338.79541	     13.896113	     18581.632
        649.00	     324.24868	     11.841655	     18582.841
        650.00	     315.16188	     9.1953035	     18584.052
        651.00	     308.48545	     8.4121690	     18585.261
        652.00	     289.89403	     11.326314	     18586.471
        653.00	     279.55308	     12.483758	     18587.681
        654.00	     299.17759	     14.458637	     18588.892
        655.00	     259.95001	     7.4885194	     18590.101
        656.00	     257.35654	     11.615635	     18591.311
        657.00	     258.98133	     13.373631	     18592.521
        658.00	     229.47879	     8.9922676	     18593.731
        659.00	     252.36637	     12.230539	     18594.942
        660.00	     216.43856	     12.590507	     18596.151
        661.00	     224.65443	     15.297094	     18597.361
        662.00	     214.58497	     11.382354	     18598.571
        663.00	     205.33384	     11.158150	     18599.781
        664.00	     192.86243	     7.8186222	     18600.991
        665.00	     198.17315	     10.550143	     18602.201
        666.00	     178.87465	     9.4077143	     18603.411
        667.00	     190.31692	     10.735020	     18604.621
        668.00	     160.69324	     12.485025	     18605.831
        669.00	     165.49004	     10.633097	     18607.041
        670.00	     158.68910	     14.024912	     18608.251
        671.00	     136.66112	     15.461290	     18609.461
        672.00	     136.33034	     11.638524	     18610.671
        673.00	     155.33745	     10.800424	     18611.891
        674.00	     147.03406	     13.215692	     18613.091
        675.00	     148.39663	     11.632854	     18614.301
        676.00	     143.68198	     9.1253201	     18615.511
        677.00	     136.57672	     14.932280	     18616.721
        678.00	     91.860731	     17.224927	     18617.931
        679.00	     98.528040	     9.4624561	     18619.141
        680.00	     119.40885	     16.355769	     18620.351
        681.00	     104.24440	     14.887358	     18621.561
        682.00	     103.94246	     15.558638	     18622.771
        683.00	     90.597382	     11.952506	     18623.981
        684.00	     112.60761	     7.1531132	     18625.191
        685.00	     105.83161	     12.235949	     18626.401
        686.00	     105.28911	     15.986327	     18627.611
        687.00	     87.084781	     14.897843	     18628.821
        688.00	     91.508556	     11.605366	     18630.031
        689.00	     90.770498	     14.691801	     18631.242
        690.00	     96.328677	     18.047227	     18632.451
        691.00	     88.397121	     17.218772	     18633.661
        692.00	     90.749608	     15.862228	     18634.871
        693.00	     97.552994	     18.456371	     18636.121
        694.00	     77.411022	     10.723727	     18637.291
        695.00	     87.539538	     13.315943	     18641.911
        696.00	     104.74734	     13.749717	     18643.121
        697.00	     80.958194	     10.257072	     18644.331
        698.00	     72.852687	     7.4248968	     18645.541
        699.00	     95.355258	     9.6514035	     18646.751
        700.00	     99.273444	     17.523389	     18647.961
        701.00	     97.097842	     17.995907	     18649.171
        702.00	     60.028809	     11.693327	     18650.381
        703.00	     48.316976	     22.430052	     18651.601
        704.00	     90.151873	     16.509983	     18652.801
        705.00	     51.209775	     19.896362	     18654.021
        706.00	     112.58909	     12.281254	     18655.221
        707.00	     79.592607	     13.903589	     18656.431
        708.00	     60.409328	     19.475124	     18657.641
        709.00	     86.160888	     13.211981	     18658.851
        710.00	     87.479352	     13.250362	     18660.061
        711.00	     41.839932	     17.162961	     18661.271
        712.00	     43.891189	     10.499920	     18662.481
        713.00	     56.278154	     24.814025	     18663.691
        714.00	     91.570624	     24.960482	     18664.901
        715.00	     106.38229	     19.996479	     18666.111
        716.00	     65.051159	     18.467441	     18667.321
        717.00	     75.515387	     25.899697	     18668.531
        718.00	     60.819683	     18.590990	     18669.741
        719.00	     81.092045	     20.604859	     18670.951
        720.00	     44.713053	     23.641688	     18672.161
        721.00	     52.132913	     20.416917	     18673.371
        722.00	     73.149986	     19.011046	     18674.581
        723.00	     60.526981	     15.722327	     18675.791
        724.00	     52.835378	     27.024610	     18677.001
        725.00	     16.588558	     14.985867	     18678.211
        726.00	     43.633627	     21.192577	     18679.421
        727.00	     40.690853	     20.658749	     18680.631
        728.00	     26.574326	     15.118092	     18681.841
        729.00	     43.709322	     26.599189	     18683.051
        730.00	     61.485518	     28.458488	     18684.261
        731.00	     43.094496	     25.198587	     18685.471
        732.00	     71.105679	     32.005905	     18686.681
        733.00	     50.381956	     28.059305	     18687.891
        734.00	     53.121761	     16.097503	     18689.101
        735.00	     49.737944	     24.724114	     18690.311
        736.00	     38.067994	     29.095841	     18691.521
        737.00	     61.614626	     23.053091	     18692.731
        738.00	     51.912275	     29.102482	     18693.941
        739.00	     56.912800	     12.363192	     18695.151
        740.00	     88.337800	     27.811515	     18696.361
        741.00	     56.358083	     30.323903	     18697.571
        742.00	     48.202899	     22.031279	     18698.781
        743.00	     74.055618	     35.113086	     18699.991
        744.00	     12.508222	     34.882054	     18701.201
        745.00	     97.133915	     46.142520	     18702.411
        746.00	    0.95140951	     40.551331	     18703.621
        747.00	     37.079540	     29.170493	     18704.831
        748.00	     42.388276	     37.818563	     18706.041
        749.00	     10.846718	     42.571180	     18707.251
        750.00	     65.831691	     43.318630	     18708.471
        751.00	     18.676067	     20.067283	     18709.671
        752.00	     87.960315	     34.558747	     18710.881
        753.00	     29.495238	     25.306225	     18712.091
        754.00	     24.640627	     33.261117	     18713.301
        755.00	     9.0117312	     54.211391	     18714.521
        756.00	     62.901001	     47.286051	     18715.721
        757.00	     58.149381	     28.369035	     18716.931
        758.00	     53.558218	     41.247070	     18718.141
        759.00	     84.938249	     24.214852	     18719.351
        760.00	     77.560944	     33.346671	     18720.561
        761.00	     15.493457	     37.786334	     18721.771
        762.00	     27.234255	     30.979476	     18722.981
        763.00	     56.835461	     37.428921	     18724.231
        764.00	     27.888307	     34.950569	     18725.401
        765.00	     82.213893	     29.483788	     18726.611
        766.00	     37.673317	     41.062164	     18727.821
        767.00	     44.269027	     26.005138	     18729.031
        768.00	     60.319044	     41.572820	     18730.251
        769.00	     10.681273	     45.705696	     18731.451
        770.00	    -8.2706293	     33.345874	     18732.661
        771.00	     33.425432	     30.976017	     18733.871
        772.00	    -5.1902215	     51.631183	     18735.081
        773.00	     24.291255	     36.765794	     18736.291
        774.00	     24.543686	     46.499761	     18737.501
        775.00	     48.328826	     29.683071	     18738.720
        776.00	     75.906494	     45.238879	     18739.920
        777.00	     39.048203	     31.496861	     18741.131
        778.00	     39.394981	     38.221563	     18742.341
        779.00	     39.871435	     44.255551	     18743.550
        780.00	    -9.1861119	     30.002640	     18744.761
        781.00	    -62.856293	     65.896025	     18745.970
        782.00	     87.965231	     45.347668	     18747.180
        783.00	     41.592984	     40.718970	     18748.390
        784.00	     75.183438	     41.768577	     18749.601
        785.00	     5.2042207	     57.867437	     18750.810
        786.00	     53.992038	     51.288148	     18752.020
        787.00	     130.23873	     55.928246	     18753.230
        788.00	     35.911482	     58.482039	     18754.440
        789.00	     86.294203	     46.725757	     18755.651
        790.00	     129.71726	     58.256257	     18756.870
        791.00	     119.21790	     40.838664	     18758.070
        792.00	     1.5818140	     32.180835	     18759.280
        793.00	     81.350492	     66.143029	     18760.490
        794.00	     49.600000	     45.097425	     18761.700
        795.00	    -6.3542527	     24.409715	     18762.911
        796.00	     1.5655134	     44.356213	     18764.120
        797.00	     66.378857	     33.859644	     18765.330
        798.00	     86.092486	     36.893718	     18766.541
        799.00	     83.862049	     53.757724	     18767.750
        800.00	     4.9401980	     45.570670	     18768.960
