Title=200311_em_NaOH-MeCN_2,0uM_ST520
Comment=
Signature=ISS_Experiment_Ver_1_0
Timestamp=Wed Mar 11 16:49:28 2020
Product=Vinci2
SoftwareVersion=BETA.2.4
BuildNumber=234
RealTimeStart=21199.0969576

AcquisitionType=Photon Counting
AcquisitionFormat=L
AcquisitionSide=Right
Detector Gains=(0.0, 0.0)

Measurable=Intensity
MaxIterations=10

RightEmissionWavelengthBandwidth=8.0
ExcitationWavelengthBandwidth=8.0
Visualization=Y:Intensity,X:EmissionWavelength,PlotType:2D


EmissionWavelength=type:numeric,unit:nm,from:400.0,to:800.0,step:1.0
ExcitationWavelength=type:numeric,unit:nm,fixed:520.0

Space=EmissionWavelength
Columns=EmissionWavelength,Intensity,IntensityStdError,RealTime
[Data]
        400.00	     4.6337140	     1.0459021	     21208.584
        401.00	     5.8829409	     1.2135848	     21210.073
        402.00	     2.3161429	     1.2212529	     21211.273
        403.00	     5.1650677	     1.3922575	     21212.483
        404.00	     2.6471326	     1.1685639	     21213.693
        405.00	     5.0373814	     1.1275849	     21214.903
        406.00	     6.3870248	     1.2152027	     21216.114
        407.00	     4.6765189	     1.1747427	     21217.323
        408.00	     1.9498521	     1.0139539	     21218.534
        409.00	     3.5346864	     1.5950432	     21219.743
        410.00	     2.2885296	     1.2756359	     21220.953
        411.00	     3.3086899	    0.96739510	     21222.163
        412.00	     2.0634548	     1.0615509	     21223.373
        413.00	     3.6519336	    0.96012019	     21224.583
        414.00	     5.8093541	     1.2452349	     21225.803
        415.00	     2.2957976	    0.75863549	     21227.003
        416.00	     4.6875645	     1.1775173	     21228.213
        417.00	     3.5526991	     1.8610147	     21229.423
        418.00	     6.1819228	     1.2615274	     21230.633
        419.00	     5.0479404	     1.5792872	     21231.843
        420.00	     2.8837012	     1.2158369	     21233.053
        421.00	     1.0562947	     1.8966631	     21234.263
        422.00	     4.7399627	     1.0599933	     21235.474
        423.00	     6.0084764	     1.2869120	     21236.683
        424.00	     4.9746655	     1.2868918	     21237.894
        425.00	    0.13877891	     1.2692162	     21239.103
        426.00	    -2.2933904	     1.6475800	     21240.313
        427.00	     2.9302624	     1.2831871	     21241.523
        428.00	     3.1686997	     1.6566342	     21242.733
        429.00	     3.6425799	     1.7246619	     21243.943
        430.00	     2.6030925	     1.6139035	     21245.153
        431.00	     2.1420816	     1.5036760	     21246.363
        432.00	     3.5659505	     1.0857740	     21247.573
        433.00	     2.7474605	     1.9111775	     21248.783
        434.00	     1.4490461	     1.2798506	     21249.993
        435.00	     2.0503557	     1.6189504	     21251.203
        436.00	     5.0404667	     1.4048234	     21252.413
        437.00	     3.2605612	     1.7690098	     21253.623
        438.00	     4.2406365	     1.6537888	     21254.834
        439.00	     3.5291119	    0.89722664	     21256.043
        440.00	     3.5439040	     1.0040797	     21257.253
        441.00	     3.4363170	     1.1835230	     21258.463
        442.00	     3.2064295	     1.5741514	     21259.673
        443.00	     3.4685883	     1.4255929	     21260.883
        444.00	     4.0974419	     2.2245499	     21262.093
        445.00	     3.2417783	     1.3734933	     21263.303
        446.00	     4.7494704	     1.7132928	     21264.513
        447.00	     5.1443438	     1.5483872	     21265.723
        448.00	     4.2969212	     1.7969538	     21266.943
        449.00	     2.8036695	     1.7585321	     21268.143
        450.00	     1.1673411	     1.2939772	     21269.353
        451.00	     4.6041719	    0.93751048	     21270.563
        452.00	     6.4243682	     1.8986621	     21271.773
        453.00	     7.0832457	     1.4542896	     21272.983
        454.00	     5.4470395	     1.2507058	     21274.193
        455.00	     5.6015404	     2.0656204	     21275.403
        456.00	     3.9390817	     1.3755736	     21276.613
        457.00	     4.6126643	     2.0187780	     21277.823
        458.00	     5.9565895	     1.4001831	     21279.033
        459.00	     5.9840386	     1.5261608	     21280.243
        460.00	     3.3458496	     1.5047472	     21281.453
        461.00	     7.1023166	     1.0568338	     21282.663
        462.00	     3.5235792	     1.3062170	     21283.873
        463.00	     5.1550941	     1.9960657	     21285.083
        464.00	     7.3548216	     1.7050952	     21286.293
        465.00	     4.8114474	     1.0349912	     21287.503
        466.00	     6.6169697	     1.1835972	     21288.713
        467.00	     9.6775244	     1.6056975	     21289.923
        468.00	     8.2153879	     2.3659414	     21291.133
        469.00	     10.197185	     2.1096130	     21292.343
        470.00	     11.634899	     2.6712812	     21293.553
        471.00	     14.975064	     1.5367802	     21294.763
        472.00	     12.070433	     1.6331557	     21295.973
        473.00	     17.396162	     1.7786854	     21297.183
        474.00	     16.634399	     2.2427331	     21298.393
        475.00	     16.739144	     1.5846006	     21299.603
        476.00	     20.732746	     2.8811204	     21300.813
        477.00	     23.023785	     1.8209771	     21302.023
        478.00	     24.735744	     2.5019353	     21303.233
        479.00	     23.549989	     2.7723610	     21304.443
        480.00	     27.996396	     2.0432353	     21305.653
        481.00	     29.800194	     2.3800828	     21306.863
        482.00	     36.436834	     2.0735974	     21308.073
        483.00	     42.689298	     1.3519910	     21309.283
        484.00	     46.726533	     1.9631537	     21310.493
        485.00	     54.174382	     3.7758252	     21311.703
        486.00	     64.127115	     2.4023389	     21312.913
        487.00	     68.747424	     2.9720984	     21314.123
        488.00	     70.820534	     4.6655326	     21315.333
        489.00	     68.117798	     4.4502322	     21316.543
        490.00	     70.967100	     2.9615513	     21317.753
        491.00	     63.210761	     3.8978272	     21318.963
        492.00	     50.316084	     1.9499427	     21320.173
        493.00	     47.131207	     2.0721470	     21321.383
        494.00	     41.920170	     2.7088666	     21322.593
        495.00	     35.321536	     2.4236319	     21323.803
        496.00	     33.675801	     2.6019605	     21325.013
        497.00	     35.840104	     2.6454229	     21326.223
        498.00	     38.289557	     2.6363559	     21327.443
        499.00	     41.860965	     2.4516389	     21328.643
        500.00	     56.531723	     2.9239586	     21329.853
        501.00	     57.268222	     3.0718260	     21331.063
        502.00	     66.675993	     2.5348416	     21332.273
        503.00	     74.096559	     4.9327832	     21333.523
        504.00	     78.807943	     1.8531246	     21334.693
        505.00	     76.947133	     3.5957351	     21335.903
        506.00	     73.222393	     3.9714150	     21337.113
        507.00	     66.193836	     2.6874449	     21338.323
        508.00	     67.015076	     3.9732949	     21339.533
        509.00	     64.593752	     2.3264965	     21340.743
        510.00	     66.971904	     2.8489284	     21341.953
        511.00	     69.504289	     3.5368416	     21343.163
        512.00	     80.638516	     2.1322187	     21344.373
        513.00	     92.648635	     3.1582441	     21345.583
        514.00	     204.06933	     5.3612051	     21346.793
        515.00	     825.78735	     10.963524	     21348.003
        516.00	     2987.8809	     9.7797113	     21349.213
        517.00	     8023.9812	     18.936564	     21350.423
        518.00	     16143.245	     14.534064	     21351.633
        519.00	     25374.172	     49.868376	     21352.843
        520.00	     32804.512	     71.857133	     21354.053
        521.00	     35652.412	     53.826584	     21355.262
        522.00	     32533.237	     45.006548	     21356.473
        523.00	     25045.138	     55.416406	     21357.683
        524.00	     15770.681	     35.638017	     21358.892
        525.00	     7753.4070	     28.285577	     21360.103
        526.00	     2822.7452	     15.416229	     21361.313
        527.00	     740.43177	     9.3361838	     21362.523
        528.00	     176.86727	     5.3473647	     21363.733
        529.00	     78.500000	     3.9790805	     21364.942
        530.00	     54.884057	     3.4759119	     21366.152
        531.00	     44.151971	     3.0813720	     21367.362
        532.00	     43.493891	     2.2915951	     21368.573
        533.00	     43.663425	     3.0093073	     21369.783
        534.00	     41.127970	     3.9750235	     21370.992
        535.00	     26.993337	     3.0913478	     21372.202
        536.00	     24.416471	     1.3176051	     21373.412
        537.00	     20.347302	     2.4372452	     21374.622
        538.00	     26.128310	     3.6846960	     21375.832
        539.00	     22.661224	     2.8709218	     21377.052
        540.00	     31.292544	     2.3502180	     21378.253
        541.00	     30.851402	     2.3877629	     21379.462
        542.00	     31.863769	     2.2078054	     21380.672
        543.00	     26.418020	     2.3736827	     21381.882
        544.00	     34.205146	     3.2759158	     21383.092
        545.00	     32.943395	     2.9966564	     21384.302
        546.00	     36.246609	     4.1788407	     21388.922
        547.00	     38.224449	     3.9678291	     21390.132
        548.00	     34.029366	     4.0091281	     21391.342
        549.00	     43.485972	     3.4765378	     21392.552
        550.00	     36.087642	     2.7133565	     21393.762
        551.00	     40.380893	     3.2011729	     21394.972
        552.00	     45.919830	     3.6665706	     21396.182
        553.00	     40.267673	     3.4730620	     21397.392
        554.00	     51.418177	     2.3964109	     21398.602
        555.00	     52.743624	     2.5180240	     21399.812
        556.00	     59.699105	     4.0743399	     21401.022
        557.00	     63.026200	     2.8563446	     21402.232
        558.00	     65.872080	     3.0691482	     21403.442
        559.00	     65.454750	     4.7525224	     21404.652
        560.00	     69.259606	     3.7254420	     21405.873
        561.00	     72.481176	     6.3854833	     21407.082
        562.00	     74.289848	     3.5410605	     21408.282
        563.00	     74.578448	     2.6269312	     21409.492
        564.00	     75.692148	     4.7963298	     21410.712
        565.00	     70.713328	     3.9302053	     21411.912
        566.00	     78.244990	     3.2663740	     21413.123
        567.00	     76.994099	     4.5571511	     21414.332
        568.00	     69.088316	     4.4584972	     21415.542
        569.00	     66.101878	     4.8655431	     21416.752
        570.00	     59.700364	     4.8081096	     21417.962
        571.00	     61.517259	     4.2178284	     21419.172
        572.00	     51.086590	     5.2127798	     21420.382
        573.00	     54.206352	     4.9579154	     21421.592
        574.00	     54.850469	     4.7829464	     21422.812
        575.00	     52.392045	     4.6117799	     21424.012
        576.00	     51.061028	     4.2659814	     21425.222
        577.00	     49.549219	     4.5313769	     21426.432
        578.00	     42.956079	     2.4944148	     21427.642
        579.00	     48.404832	     4.2049920	     21428.852
        580.00	     47.152427	     2.5183077	     21430.102
        581.00	     45.509611	     4.6672212	     21431.312
        582.00	     39.458501	     3.2864845	     21432.482
        583.00	     38.916636	     4.7726111	     21433.692
        584.00	     33.064466	     3.0469390	     21434.902
        585.00	     36.575355	     3.8405943	     21436.112
        586.00	     38.973151	     3.9900571	     21437.322
        587.00	     27.240951	     4.6891670	     21438.533
        588.00	     28.930459	     4.2606279	     21439.742
        589.00	     23.079683	     3.6464419	     21440.952
        590.00	     25.712458	     3.9387575	     21442.162
        591.00	     30.850734	     3.6298957	     21443.372
        592.00	     24.578032	     5.6526333	     21444.582
        593.00	     19.376421	     5.1579755	     21445.792
        594.00	     17.626069	     4.5130675	     21447.002
        595.00	     24.796300	     3.0575074	     21448.212
        596.00	     25.666581	     4.4001827	     21449.422
        597.00	     22.324120	     4.5000715	     21450.632
        598.00	     20.518008	     2.9498734	     21451.852
        599.00	     18.044565	     5.2149895	     21453.052
        600.00	     16.528918	     5.6814653	     21454.262
        601.00	     10.279392	     3.7624584	     21455.472
        602.00	     17.161977	     6.1186447	     21456.682
        603.00	     14.226139	     5.3709235	     21457.892
        604.00	     11.932938	     2.5731725	     21459.102
        605.00	     15.882794	     3.4519693	     21460.312
        606.00	     14.274336	     5.3820398	     21461.522
        607.00	     11.206936	     4.0263132	     21462.732
        608.00	     9.5142352	     3.8908617	     21463.942
        609.00	     13.229229	     4.5482009	     21465.152
        610.00	     10.445210	     5.3634304	     21466.362
        611.00	     12.016130	     5.2545147	     21467.572
        612.00	     10.644691	     5.4376273	     21468.782
        613.00	     8.8763988	     6.5097377	     21469.992
        614.00	     13.129001	     6.3001037	     21471.202
        615.00	     4.8303256	     6.3238128	     21472.412
        616.00	     10.304702	     4.7358037	     21473.622
        617.00	     10.797960	     4.0908062	     21474.832
        618.00	     8.5504916	     3.5894833	     21476.042
        619.00	     8.2360551	     4.7847277	     21477.252
        620.00	     12.785953	     3.0158501	     21478.462
        621.00	     5.1546331	     4.5412115	     21479.672
        622.00	     10.997867	     6.2018047	     21480.882
        623.00	   -0.16731177	     2.9113102	     21482.092
        624.00	     9.5581519	     5.0219808	     21483.302
        625.00	     4.5321783	     5.3116689	     21484.512
        626.00	    -1.4711712	     4.6176922	     21485.722
        627.00	     12.525708	     3.2676373	     21486.932
        628.00	     4.6881497	     6.7381950	     21488.142
        629.00	     6.5453119	     4.5350915	     21489.352
        630.00	     12.063689	     3.8393446	     21490.562
        631.00	     8.0773522	     4.1727423	     21491.772
        632.00	     11.892997	     6.5039827	     21492.982
        633.00	     12.046828	     6.2034012	     21494.202
        634.00	     6.0019861	     5.6563203	     21495.402
        635.00	     7.0271022	     6.6556825	     21496.622
        636.00	     17.851986	     8.2021573	     21497.822
        637.00	     8.6948237	     5.2178755	     21499.032
        638.00	     2.3002905	     6.3275499	     21500.242
        639.00	     13.981411	     8.0345007	     21501.452
        640.00	     13.118081	     5.6753629	     21502.662
        641.00	     3.9478525	     5.7532150	     21503.872
        642.00	     12.937341	     7.3564511	     21505.082
        643.00	     2.9795048	     5.9459050	     21506.292
        644.00	     8.9473091	     5.6956872	     21507.512
        645.00	    0.32752196	     6.7323958	     21508.712
        646.00	     9.1852807	     6.6629775	     21509.922
        647.00	     24.441859	     11.298729	     21511.132
        648.00	     11.686513	     5.4446972	     21512.352
        649.00	     2.6436440	     9.6185655	     21513.552
        650.00	     16.654896	     6.2629653	     21514.762
        651.00	    -3.7807485	     7.0339924	     21515.972
        652.00	     12.333368	     3.9361172	     21517.192
        653.00	     10.083836	     10.174829	     21518.392
        654.00	     15.752666	     4.6047718	     21519.602
        655.00	     12.212417	     7.4769898	     21520.812
        656.00	     9.8594351	     8.4373946	     21522.022
        657.00	     7.4324183	     7.8181374	     21523.231
        658.00	     4.2881087	     9.8890284	     21524.451
        659.00	     13.566668	     8.1815550	     21525.651
        660.00	    0.40056489	     9.1456631	     21526.862
        661.00	     10.549696	     11.458832	     21528.071
        662.00	     1.7813567	     4.8392655	     21529.282
        663.00	     8.7642492	     9.1840532	     21530.492
        664.00	     6.0710722	     8.9325958	     21531.702
        665.00	    -8.1499778	     8.3949132	     21532.912
        666.00	    -3.1967850	     6.7810591	     21534.122
        667.00	    -3.2432007	     10.943865	     21535.331
        668.00	    0.44802949	     7.1665702	     21536.541
        669.00	     5.7640895	     7.0787064	     21537.752
        670.00	     12.775165	     4.6246499	     21538.961
        671.00	    0.46801752	     9.9655324	     21540.171
        672.00	     5.2252047	     7.2030471	     21541.381
        673.00	    -13.185995	     8.6263621	     21542.631
        674.00	     13.544758	     3.4936862	     21543.802
        675.00	     12.918457	     9.2543932	     21545.011
        676.00	    -15.442456	     6.2555038	     21546.222
        677.00	     5.6267564	     13.038240	     21547.431
        678.00	    0.51898718	     9.8580583	     21548.651
        679.00	    -2.9856982	     10.492943	     21549.851
        680.00	    -7.4741756	     8.9961497	     21551.061
        681.00	     8.6870332	     13.203125	     21552.271
        682.00	     6.9784693	     10.967505	     21553.482
        683.00	     18.268608	     7.7111382	     21554.691
        684.00	     29.852354	     9.6545975	     21555.901
        685.00	     10.179810	     6.1493005	     21557.111
        686.00	   -0.38923886	     13.199732	     21558.321
        687.00	    -3.3570097	     10.433631	     21559.531
        688.00	     5.6189464	     11.891021	     21560.751
        689.00	     21.980300	     8.8453102	     21561.952
        690.00	     26.459379	     8.7430178	     21563.161
        691.00	     27.925931	     13.485529	     21564.371
        692.00	    -2.5563270	     17.623991	     21565.581
        693.00	     3.8934676	     19.266016	     21566.801
        694.00	     41.124605	     18.935779	     21568.001
        695.00	     1.5632060	     14.049937	     21572.622
        696.00	     7.2552267	     11.949501	     21573.832
        697.00	    -12.189728	     10.574485	     21575.041
        698.00	     16.812159	     7.3428513	     21576.251
        699.00	   -0.71160641	     15.519176	     21577.461
        700.00	     24.577406	     15.365799	     21578.671
        701.00	     13.941000	     7.9983092	     21579.881
        702.00	   -0.74415879	     16.123440	     21581.091
        703.00	    -17.112262	     13.655267	     21582.301
        704.00	    -8.4517381	     16.972537	     21583.511
        705.00	     17.416522	     19.858590	     21584.721
        706.00	     3.1640962	     16.929110	     21585.931
        707.00	     27.334835	     17.089745	     21587.141
        708.00	     1.9047986	     10.191673	     21588.351
        709.00	     14.360148	     21.211998	     21589.561
        710.00	     28.599019	     20.390749	     21590.771
        711.00	     13.377393	     22.853880	     21591.981
        712.00	    -10.972797	     23.792118	     21593.191
        713.00	     44.553539	     24.833253	     21594.401
        714.00	     17.001712	     21.583517	     21595.611
        715.00	    -8.4622277	     12.088897	     21596.821
        716.00	    -7.0574370	     14.365026	     21598.032
        717.00	    -10.297553	     16.780087	     21599.241
        718.00	    -18.372612	     12.888869	     21600.451
        719.00	     32.822971	     23.030689	     21601.661
        720.00	     2.2846085	     19.949116	     21602.871
        721.00	     35.530075	     15.702147	     21604.081
        722.00	    -2.6967737	     11.731310	     21605.291
        723.00	     5.8133259	     22.080802	     21606.501
        724.00	     16.337255	     23.035408	     21607.711
        725.00	     7.7648570	     21.176883	     21608.921
        726.00	    -29.685172	     23.551127	     21610.131
        727.00	     9.8094020	     24.885269	     21611.341
        728.00	     43.183280	     18.258558	     21612.551
        729.00	     8.2188468	     20.040882	     21613.761
        730.00	    -22.013334	     19.963480	     21614.971
        731.00	     29.627466	     11.631895	     21616.181
        732.00	     30.083172	     17.820610	     21617.391
        733.00	     10.711125	     19.490813	     21618.601
        734.00	    -11.268252	     30.264686	     21619.811
        735.00	     25.276660	     12.602479	     21621.021
        736.00	    -3.3102603	     15.966264	     21622.231
        737.00	    -11.736119	     30.095684	     21623.441
        738.00	     17.871439	     23.262968	     21624.651
        739.00	    -16.383988	     16.449413	     21625.861
        740.00	    -5.6851059	     28.124921	     21627.071
        741.00	    -32.394804	     17.642388	     21628.281
        742.00	     23.425708	     28.133365	     21629.491
        743.00	     23.770939	     29.151593	     21630.701
        744.00	     28.722583	     23.214791	     21631.911
        745.00	     15.015871	     27.980423	     21633.121
        746.00	    -15.698257	     17.388366	     21634.331
        747.00	    0.96310495	     36.638799	     21635.541
        748.00	     20.463305	     30.771769	     21636.751
        749.00	    -55.712690	     31.279416	     21637.961
        750.00	     8.4783238	     26.559671	     21639.171
        751.00	    -24.228411	     19.257419	     21640.381
        752.00	    -11.762135	     30.362525	     21641.591
        753.00	     34.669841	     28.616694	     21642.811
        754.00	     32.504657	     37.724683	     21644.011
        755.00	     43.468351	     33.292946	     21645.221
        756.00	     3.7633078	     22.756229	     21646.431
        757.00	    -28.802964	     34.143427	     21647.641
        758.00	    -26.503036	     27.668610	     21648.851
        759.00	     9.4996725	     22.832092	     21650.061
        760.00	     32.269882	     41.613196	     21651.271
        761.00	     12.624298	     41.423780	     21652.481
        762.00	    -36.505490	     37.763316	     21653.691
        763.00	     21.679506	     35.060884	     21654.901
        764.00	     60.523559	     29.403509	     21656.111
        765.00	    -1.8003042	     37.702525	     21657.321
        766.00	    -17.013756	     33.527116	     21658.531
        767.00	    -44.883874	     42.114442	     21659.751
        768.00	    -11.193225	     50.348608	     21660.951
        769.00	     32.672129	     30.780786	     21662.161
        770.00	     33.082517	     60.578571	     21663.371
        771.00	     49.495351	     48.018922	     21664.581
        772.00	     40.224216	     56.434958	     21665.791
        773.00	     37.421663	     37.025397	     21667.001
        774.00	    -5.3067429	     42.185917	     21668.211
        775.00	     61.753500	     37.372711	     21669.421
        776.00	    -18.976623	     24.644110	     21670.631
        777.00	    -73.986069	     27.873922	     21671.841
        778.00	     67.040581	     28.705201	     21673.051
        779.00	    -9.0934852	     39.518074	     21674.261
        780.00	    -19.785472	     34.456726	     21675.471
        781.00	     8.5713126	     42.324163	     21676.681
        782.00	     5.0471854	     54.076986	     21677.891
        783.00	    -16.783134	     35.016380	     21679.101
        784.00	    -42.751367	     26.233315	     21680.311
        785.00	    -35.686085	     50.848419	     21681.521
        786.00	     46.493144	     28.058293	     21682.731
        787.00	    -9.8436250	     69.226369	     21683.941
        788.00	    -13.753334	     54.921285	     21685.151
        789.00	    -29.278390	     62.171472	     21686.360
        790.00	    -6.2140007	     33.659171	     21687.571
        791.00	    -69.020887	     44.980312	     21688.781
        792.00	    -37.963536	     26.495057	     21689.991
        793.00	     57.423877	     45.194718	     21691.200
        794.00	     85.600000	     53.082745	     21692.411
        795.00	     57.188274	     42.195885	     21693.620
        796.00	    -6.2620536	     26.608611	     21694.831
        797.00	    -13.733557	     46.895236	     21696.041
        798.00	    -42.678326	     39.473716	     21697.260
        799.00	     48.023566	     48.393011	     21698.461
        800.00	    -9.1746535	     33.455639	     21699.671
