Title=200311_em_NaOH-MeCN_2,0uM_ST488
Comment=
Signature=ISS_Experiment_Ver_1_0
Timestamp=Wed Mar 11 17:00:13 2020
Product=Vinci2
SoftwareVersion=BETA.2.4
BuildNumber=234
RealTimeStart=21844.4631623

AcquisitionType=Photon Counting
AcquisitionFormat=L
AcquisitionSide=Right
Detector Gains=(0.0, 0.0)

Measurable=Intensity
MaxIterations=10

RightEmissionWavelengthBandwidth=8.0
ExcitationWavelengthBandwidth=8.0
Visualization=Y:Intensity,X:EmissionWavelength,PlotType:2D


EmissionWavelength=type:numeric,unit:nm,from:400.0,to:800.0,step:1.0
ExcitationWavelength=type:numeric,unit:nm,fixed:505.0

Space=EmissionWavelength
Columns=EmissionWavelength,Intensity,IntensityStdError,RealTime
[Data]
        400.00	   -0.46106607	     1.6730198	     21853.419
        401.00	    0.45960476	     1.3399666	     21854.899
        402.00	     2.4078713	     1.0681156	     21856.109
        403.00	     2.7425138	    0.96662775	     21857.319
        404.00	   -0.11410055	     1.2551060	     21858.529
        405.00	     1.5955507	     1.1795051	     21859.739
        406.00	     1.1364813	    0.97027078	     21860.949
        407.00	     1.8161238	     1.4337764	     21862.159
        408.00	     1.5870889	    0.92868928	     21863.369
        409.00	     2.4924071	     1.4742377	     21864.579
        410.00	   -0.11329355	     1.3663241	     21865.789
        411.00	     1.4730469	     1.5037187	     21866.999
        412.00	    -1.0203898	     1.2539955	     21868.209
        413.00	   -0.79389861	     1.2792296	     21869.419
        414.00	     1.1346395	     1.2521083	     21870.629
        415.00	     1.5911468	     1.7294572	     21871.839
        416.00	     1.9341892	     1.3403246	     21873.049
        417.00	     1.5941598	     1.4222179	     21874.259
        418.00	    0.11405762	     1.1785954	     21875.469
        419.00	     0.0000000	    0.83056603	     21876.679
        420.00	    -1.1443259	     1.7629057	     21877.889
        421.00	     1.1481464	     1.7852764	     21879.109
        422.00	     1.2655240	     1.7409867	     21880.309
        423.00	    -2.0718884	     1.2748443	     21881.519
        424.00	    0.92123436	     1.2378715	     21882.729
        425.00	     1.0408418	     1.8842088	     21883.939
        426.00	    0.81079459	     1.3968873	     21885.149
        427.00	   -0.81396177	     1.5910531	     21886.359
        428.00	     3.2618967	     1.6198155	     21887.569
        429.00	   -0.23349871	     1.3481054	     21888.779
        430.00	     1.9933591	    0.99572113	     21889.989
        431.00	     3.4132069	     1.4515937	     21891.199
        432.00	     1.5350118	     1.3318333	     21892.409
        433.00	    0.71055012	    0.93080693	     21893.619
        434.00	   -0.23754854	     1.6323962	     21894.829
        435.00	     2.0265143	     1.1161383	     21896.039
        436.00	   -0.35832701	     1.4731222	     21897.259
        437.00	     1.4384829	     1.3276596	     21898.459
        438.00	     3.2527610	     1.4192155	     21899.669
        439.00	    -1.0877400	     1.1113572	     21900.879
        440.00	     4.7332965	     1.5715292	     21902.099
        441.00	     3.4119460	     1.2453367	     21903.299
        442.00	     2.2028905	     1.3529928	     21904.509
        443.00	    0.12299958	     1.4208685	     21905.719
        444.00	    0.37025077	     1.4041594	     21906.929
        445.00	    0.49492798	     2.1207598	     21908.149
        446.00	   -0.12433169	     1.3033430	     21909.349
        447.00	     1.2486271	     1.3525193	     21910.559
        448.00	     2.3871784	     1.4319151	     21911.769
        449.00	    -1.0103313	     1.5084645	     21912.979
        450.00	     3.1721226	     1.3514550	     21914.189
        451.00	     1.5262448	     2.2289007	     21915.399
        452.00	     3.3273620	     1.3462791	     21916.609
        453.00	     1.5398360	     1.3820451	     21917.819
        454.00	    0.38723030	     1.3908650	     21919.029
        455.00	     2.5933057	     1.5798131	     21920.239
        456.00	   -0.78259901	     1.4446124	     21921.449
        457.00	    0.65520800	     1.8741952	     21922.659
        458.00	     4.7441863	    0.97831524	     21923.869
        459.00	     2.9125851	     1.1709033	     21925.079
        460.00	     4.6470133	     1.8989412	     21926.289
        461.00	     3.0705504	     1.6075793	     21927.499
        462.00	     2.9587306	     1.4759652	     21928.709
        463.00	     3.2388026	     1.4253412	     21929.919
        464.00	     3.5281432	     1.5245468	     21931.129
        465.00	     3.5539100	     1.5624837	     21932.339
        466.00	     3.7066013	     1.1835972	     21933.549
        467.00	     7.8578190	     1.8660198	     21934.759
        468.00	     7.7713128	     1.9273473	     21935.969
        469.00	     7.2439016	     1.8827768	     21937.179
        470.00	     9.9288201	     1.4299237	     21938.389
        471.00	     9.0245205	     1.9852734	     21939.599
        472.00	     7.9336178	     1.6056131	     21940.809
        473.00	     9.6803519	     2.0575003	     21942.019
        474.00	     9.4481098	     1.9418242	     21943.229
        475.00	     7.0586753	     2.4620743	     21944.439
        476.00	     5.0673612	     1.2026475	     21945.649
        477.00	     9.1687641	     2.4760127	     21946.858
        478.00	     8.7715404	     2.5767480	     21948.069
        479.00	     8.2322058	     2.1671619	     21949.288
        480.00	     6.0668722	     1.7093510	     21950.488
        481.00	     4.3167114	     2.0270382	     21951.699
        482.00	     3.8953853	     1.1985801	     21952.908
        483.00	     5.5773448	     1.9775625	     21954.118
        484.00	     7.2773316	     2.0590349	     21955.329
        485.00	     8.3884883	     1.8892812	     21956.578
        486.00	     10.427173	     1.2095684	     21957.748
        487.00	     9.7066062	     1.1310361	     21958.958
        488.00	     8.3829655	     2.0594927	     21960.169
        489.00	     12.649110	     1.9061983	     21961.378
        490.00	     13.653555	     1.3326853	     21962.599
        491.00	     6.9497089	     2.1605470	     21963.799
        492.00	     10.310673	     1.9217806	     21965.008
        493.00	     4.3107811	     1.6905053	     21966.218
        494.00	     11.234349	     2.2797464	     21967.428
        495.00	     12.246518	     1.8730293	     21968.638
        496.00	     13.425031	     2.1054788	     21969.848
        497.00	     9.8102475	     1.7026774	     21971.058
        498.00	     13.639199	     1.6670091	     21972.268
        499.00	     34.485787	     1.8562580	     21973.478
        500.00	     130.94521	     3.8755898	     21974.688
        501.00	     477.59741	     3.8980421	     21975.898
        502.00	     1268.5564	     10.278332	     21977.108
        503.00	     2599.3119	     10.042363	     21978.318
        504.00	     4242.1481	     13.590347	     21979.528
        505.00	     5611.2125	     20.362121	     21980.738
        506.00	     6184.5607	     16.681432	     21981.948
        507.00	     5557.8428	     23.999774	     21983.158
        508.00	     4144.8365	     20.311409	     21984.368
        509.00	     2505.3657	     18.883754	     21985.578
        510.00	     1192.5292	     9.6184243	     21986.788
        511.00	     427.29772	     4.4019066	     21987.998
        512.00	     121.84160	     3.8985645	     21989.208
        513.00	     40.436876	     2.2359442	     21990.418
        514.00	     30.843812	     3.0280419	     21991.628
        515.00	     26.757402	     2.2816389	     21992.838
        516.00	     29.132520	     2.7035786	     21994.048
        517.00	     27.349667	     3.3051459	     21995.258
        518.00	     28.056974	     2.9982312	     21996.468
        519.00	     30.823080	     3.0889923	     21997.678
        520.00	     24.384352	     1.7081943	     21998.888
        521.00	     30.209578	     2.4637670	     22000.098
        522.00	     27.740560	     1.9197632	     22001.308
        523.00	     34.214338	     1.8468903	     22002.518
        524.00	     30.562866	     3.4672094	     22003.728
        525.00	     32.932866	     2.6981009	     22004.938
        526.00	     31.945230	     2.2554681	     22006.148
        527.00	     31.574915	     2.2739741	     22007.358
        528.00	     37.963935	     4.0314507	     22008.568
        529.00	     40.042724	     2.8497059	     22009.779
        530.00	     37.105863	     3.2049207	     22010.988
        531.00	     41.252073	     2.7600952	     22012.198
        532.00	     35.459204	     3.8558164	     22013.408
        533.00	     43.210741	     3.4403805	     22014.618
        534.00	     35.099171	     3.3120430	     22015.828
        535.00	     38.561909	     2.6187953	     22017.038
        536.00	     44.999640	     3.1334511	     22018.248
        537.00	     45.425560	     4.2035168	     22019.458
        538.00	     44.388674	     2.9427146	     22020.668
        539.00	     48.408771	     2.5687971	     22021.878
        540.00	     42.729629	     2.8175897	     22023.088
        541.00	     43.645534	     3.5543827	     22024.298
        542.00	     48.376168	     3.5697769	     22025.508
        543.00	     49.939137	     1.9079492	     22026.718
        544.00	     49.610517	     1.9730292	     22027.928
        545.00	     53.418174	     3.0319332	     22029.138
        546.00	     53.334926	     3.1220193	     22033.758
        547.00	     55.188486	     1.8440449	     22034.968
        548.00	     60.476829	     2.8750399	     22036.178
        549.00	     54.851624	     2.8303405	     22037.388
        550.00	     61.095745	     2.7805674	     22038.598
        551.00	     61.207976	     3.5742020	     22039.808
        552.00	     52.924550	     1.9839076	     22041.018
        553.00	     57.011275	     3.7535669	     22042.228
        554.00	     61.766781	     2.8111050	     22043.438
        555.00	     60.131472	     2.5658086	     22044.648
        556.00	     65.019294	     4.1380698	     22045.858
        557.00	     58.185333	     4.5273466	     22047.068
        558.00	     59.562127	     4.0966761	     22048.278
        559.00	     62.707386	     3.1534901	     22049.488
        560.00	     63.099963	     1.9816995	     22050.708
        561.00	     59.920379	     2.6218794	     22051.908
        562.00	     66.062790	     3.7670634	     22053.118
        563.00	     59.097093	     4.7830087	     22054.338
        564.00	     62.334710	     4.9215253	     22055.538
        565.00	     61.792259	     4.3939024	     22056.748
        566.00	     56.521576	     3.0910885	     22057.958
        567.00	     61.267426	     3.3330336	     22059.168
        568.00	     64.337849	     3.5315738	     22060.378
        569.00	     57.396032	     3.8080880	     22061.588
        570.00	     67.989167	     3.5017541	     22062.798
        571.00	     72.783963	     3.1243583	     22064.008
        572.00	     60.845302	     4.1354151	     22065.228
        573.00	     64.047386	     3.9118833	     22066.428
        574.00	     60.427565	     4.2520282	     22067.638
        575.00	     64.314243	     4.4429539	     22068.848
        576.00	     68.283120	     4.9085434	     22070.058
        577.00	     64.142102	     3.6944564	     22071.268
        578.00	     61.022242	     2.7732166	     22072.478
        579.00	     64.088449	     3.4470677	     22073.688
        580.00	     63.553271	     5.6788968	     22074.898
        581.00	     60.029071	     3.4803481	     22076.108
        582.00	     61.296442	     5.0667574	     22077.318
        583.00	     56.860235	     3.5755053	     22078.528
        584.00	     62.311543	     5.2245405	     22079.738
        585.00	     59.538524	     3.7378860	     22080.948
        586.00	     57.654003	     3.5865159	     22082.158
        587.00	     65.005449	     4.4608237	     22083.368
        588.00	     61.189737	     3.7323117	     22084.578
        589.00	     65.392436	     3.5383431	     22085.788
        590.00	     59.421614	     5.4442821	     22086.998
        591.00	     61.391722	     4.9354643	     22088.208
        592.00	     70.106803	     3.5637773	     22089.428
        593.00	     63.287920	     5.4441682	     22090.628
        594.00	     65.051607	     5.1291696	     22091.838
        595.00	     60.776499	     3.0145339	     22093.048
        596.00	     68.745165	     4.8545478	     22094.258
        597.00	     51.482155	     4.3995872	     22095.468
        598.00	     65.290531	     3.9754254	     22096.678
        599.00	     68.146323	     3.7536055	     22097.888
        600.00	     57.051426	     2.8013673	     22099.098
        601.00	     60.534196	     3.1691369	     22100.308
        602.00	     52.978277	     4.5236731	     22101.518
        603.00	     61.965781	     4.2590740	     22102.728
        604.00	     56.629724	     6.0055365	     22103.938
        605.00	     63.113206	     5.6593169	     22105.148
        606.00	     61.949211	     7.1680739	     22106.358
        607.00	     69.936956	     6.6706029	     22107.568
        608.00	     60.876798	     5.2797066	     22108.778
        609.00	     56.820625	     6.1008622	     22109.988
        610.00	     58.873001	     4.5158457	     22111.198
        611.00	     64.946077	     4.3282432	     22112.408
        612.00	     65.580227	     4.0790460	     22113.617
        613.00	     52.355708	     4.2032643	     22114.827
        614.00	     53.578465	     6.5917268	     22116.037
        615.00	     52.213520	     4.6444685	     22117.247
        616.00	     65.159808	     4.2141244	     22118.458
        617.00	     58.371579	     4.9555853	     22119.667
        618.00	     44.415054	     5.3582924	     22120.887
        619.00	     63.249705	     5.7553294	     22122.087
        620.00	     56.727549	     5.3966023	     22123.297
        621.00	     51.219053	     6.1832601	     22124.507
        622.00	     54.658572	     7.7583022	     22125.717
        623.00	     58.642774	     3.1207868	     22126.927
        624.00	     58.025595	     4.2386587	     22128.137
        625.00	     49.682936	     7.5965340	     22129.347
        626.00	     55.039112	     4.1901954	     22130.558
        627.00	     54.394856	     4.7731363	     22131.767
        628.00	     47.854510	     7.9732851	     22132.977
        629.00	     53.886746	     8.3483976	     22134.187
        630.00	     45.896441	     5.0502088	     22135.407
        631.00	     39.101728	     7.9726001	     22136.607
        632.00	     48.408214	     7.8183481	     22137.818
        633.00	     54.210727	     4.7989853	     22139.027
        634.00	     70.594788	     5.9517043	     22140.238
        635.00	     51.114949	     7.3187717	     22141.447
        636.00	     43.020360	     4.3777727	     22142.657
        637.00	     45.549020	     5.3841321	     22143.867
        638.00	     35.604496	     7.0640987	     22145.087
        639.00	     43.160009	     5.1660500	     22146.287
        640.00	     43.146190	     7.9549761	     22147.497
        641.00	     34.907327	     8.7334256	     22148.707
        642.00	     46.385102	     9.3174678	     22149.928
        643.00	     45.331038	     7.1294412	     22151.127
        644.00	     43.227361	     3.6864143	     22152.337
        645.00	     32.861370	     6.1462573	     22153.547
        646.00	     37.183787	     11.700167	     22154.757
        647.00	     44.398973	     10.577249	     22155.967
        648.00	     35.286461	     8.3483834	     22157.177
        649.00	     27.700791	     4.3049645	     22158.387
        650.00	     43.791895	     6.9339384	     22159.597
        651.00	     43.242311	     6.1011566	     22160.807
        652.00	     43.825367	     8.7901056	     22162.017
        653.00	     44.466070	     9.2348124	     22163.227
        654.00	     30.889993	     7.5111638	     22164.437
        655.00	     37.509565	     6.9538784	     22165.657
        656.00	     28.567081	     6.2353126	     22166.867
        657.00	     31.523705	     5.4199319	     22168.067
        658.00	     31.965901	     8.0569123	     22169.277
        659.00	     21.864728	     7.7923779	     22170.487
        660.00	     36.184361	     4.3890969	     22171.697
        661.00	     29.890807	     8.9857858	     22172.907
        662.00	     36.449298	     8.1066525	     22174.117
        663.00	     53.002841	     11.313647	     22175.327
        664.00	     28.378733	     6.6598117	     22176.537
        665.00	     37.318320	     6.2551817	     22177.747
        666.00	     30.660074	     5.2447636	     22178.957
        667.00	     43.635792	     3.3327966	     22180.167
        668.00	     23.297533	     7.6959642	     22181.378
        669.00	     27.455268	     5.5445768	     22182.587
        670.00	     27.859095	     13.673283	     22183.797
        671.00	     35.257320	     12.072966	     22185.007
        672.00	     49.243596	     11.710110	     22186.217
        673.00	     25.889576	     13.741783	     22187.427
        674.00	     41.776604	     4.6793742	     22188.637
        675.00	     53.164419	     8.0430105	     22189.847
        676.00	     54.720007	     10.225405	     22191.057
        677.00	     39.387295	     15.773889	     22192.267
        678.00	     33.042184	     9.7563387	     22193.477
        679.00	     30.910758	     12.678333	     22194.687
        680.00	     35.769269	     12.794872	     22195.897
        681.00	     23.708361	     11.993472	     22197.107
        682.00	     33.239551	     13.132645	     22198.317
        683.00	     26.284426	     9.1376850	     22199.527
        684.00	     15.304055	     19.001181	     22200.737
        685.00	     23.240697	     9.8615605	     22201.947
        686.00	     26.468242	     12.990837	     22203.157
        687.00	     13.033096	     11.209375	     22204.367
        688.00	     23.278492	     13.790184	     22205.577
        689.00	     22.590864	     14.742617	     22206.787
        690.00	     12.609548	     10.613327	     22207.997
        691.00	     46.403239	     14.466911	     22209.207
        692.00	     37.492796	     16.409091	     22210.417
        693.00	     25.091236	     11.052913	     22211.627
        694.00	     24.630780	     15.446510	     22212.837
        695.00	     9.3792362	     11.190543	     22217.457
        696.00	     17.457889	     14.184213	     22218.667
        697.00	     5.0598871	     7.4723756	     22219.877
        698.00	     23.817225	     14.685703	     22221.087
        699.00	     17.078554	     10.608002	     22222.297
        700.00	     19.758307	     16.828557	     22223.507
        701.00	     29.838632	     9.4725019	     22224.717
        702.00	     38.944310	     17.834720	     22225.927
        703.00	     11.827593	     19.151390	     22227.137
        704.00	     5.6344920	     13.765675	     22228.347
        705.00	     18.716263	     9.6876936	     22229.557
        706.00	     5.8008431	     8.3381256	     22230.767
        707.00	     13.935406	     14.292724	     22231.977
        708.00	     11.428792	     14.081156	     22233.187
        709.00	     22.644849	     20.970945	     22234.397
        710.00	     20.187543	     15.498728	     22235.607
        711.00	     4.8386316	     9.3561501	     22236.827
        712.00	     15.015407	     13.475365	     22238.027
        713.00	     48.950269	     19.595908	     22239.237
        714.00	     31.915494	     9.9549420	     22240.447
        715.00	     3.6266690	     18.548349	     22241.657
        716.00	     14.421719	     17.899297	     22242.867
        717.00	     41.190211	     20.646524	     22244.077
        718.00	    -21.540304	     15.446445	     22245.287
        719.00	     58.566477	     24.318569	     22246.497
        720.00	     21.866967	     14.483903	     22247.707
        721.00	     28.888939	     20.416917	     22248.917
        722.00	     31.012897	     20.901204	     22250.127
        723.00	     34.879955	     24.340916	     22251.337
        724.00	     5.9092199	     11.128667	     22252.547
        725.00	     39.530181	     24.509497	     22253.757
        726.00	     6.0800956	     19.489428	     22254.967
        727.00	     26.158405	     16.692997	     22256.177
        728.00	     11.810812	     28.162691	     22257.387
        729.00	     23.162205	     15.702381	     22258.597
        730.00	    -1.1386207	     23.370763	     22259.807
        731.00	     71.952418	     21.661841	     22261.017
        732.00	     14.455550	     22.565926	     22262.227
        733.00	     10.711125	     17.851874	     22263.437
        734.00	     51.109573	     24.267057	     22264.647
        735.00	     2.8538164	     30.697163	     22265.857
        736.00	     21.516692	     22.705734	     22267.067
        737.00	     80.476247	     32.796011	     22268.277
        738.00	     28.509200	     30.494916	     22269.487
        739.00	     18.108618	     33.428232	     22270.696
        740.00	    -7.8716852	     29.299799	     22271.907
        741.00	     71.889838	     33.536119	     22273.117
        742.00	     25.678180	     23.755008	     22274.336
        743.00	    0.91426689	     25.314904	     22275.536
        744.00	     3.2428723	     23.432054	     22276.747
        745.00	    -13.138887	     18.173818	     22277.957
        746.00	     48.521885	     26.343336	     22279.166
        747.00	     63.564926	     19.919697	     22280.377
        748.00	     35.079952	     26.187372	     22281.587
        749.00	     62.615148	     32.340754	     22282.797
        750.00	     35.908195	     26.285112	     22284.007
        751.00	     36.342616	     18.431177	     22285.216
        752.00	     31.706625	     23.743128	     22286.436
        753.00	     37.257142	     34.063408	     22287.636
        754.00	     113.76630	     34.610997	     22288.846
        755.00	     6.3612220	     35.295920	     22290.057
        756.00	     27.956001	     27.820118	     22291.266
        757.00	     28.259512	     40.547018	     22292.476
        758.00	    -4.4171726	     35.924904	     22293.686
        759.00	    -12.852498	     42.567455	     22294.896
        760.00	    -1.6984148	     32.205810	     22296.106
        761.00	     18.362615	     57.191576	     22297.316
        762.00	     12.747949	     35.087575	     22298.536
        763.00	    -10.546787	     35.960544	     22299.736
        764.00	     1.1867364	     46.847289	     22300.946
        765.00	    -58.809938	     46.311173	     22302.157
        766.00	     49.826000	     31.961017	     22303.366
        767.00	    -84.848968	     25.017238	     22304.576
        768.00	    -4.9747665	     37.137612	     22305.787
        769.00	     1.2566203	     32.848866	     22306.996
        770.00	     36.263528	     42.953469	     22308.206
        771.00	     30.211448	     49.848419	     22309.416
        772.00	     11.029221	     37.285123	     22310.626
        773.00	     21.008653	     42.603628	     22311.836
        774.00	     54.394114	     53.662938	     22313.047
        775.00	     78.534343	     29.788293	     22314.256
        776.00	     48.797032	     34.261279	     22315.466
        777.00	     45.898765	     48.021848	     22316.677
        778.00	    -33.174721	     38.273601	     22317.886
        779.00	    -5.5959909	     52.965199	     22319.096
        780.00	     57.943167	     41.068034	     22320.306
        781.00	     40.713735	     48.808864	     22321.516
        782.00	     77.149834	     42.333664	     22322.726
        783.00	     26.998955	     35.685810	     22323.936
        784.00	     8.8451104	     39.157740	     22325.146
        785.00	     1.4869202	     54.351176	     22326.356
        786.00	     72.739274	     53.392150	     22327.566
        787.00	    -17.415644	     64.461068	     22328.776
        788.00	     1.5281482	     58.689644	     22329.986
        789.00	     20.803067	     39.559014	     22331.196
        790.00	     32.623504	     36.248338	     22332.406
        791.00	    -29.804474	     40.418069	     22333.616
        792.00	     52.990769	     54.493563	     22334.826
        793.00	     173.06918	     69.440131	     22336.036
        794.00	    -78.400000	     39.642850	     22337.246
        795.00	     9.5313790	     56.413256	     22338.456
        796.00	     122.89280	     46.692820	     22339.666
        797.00	     32.044966	     54.308985	     22340.876
        798.00	     52.979991	     34.687510	     22342.086
        799.00	    -20.069550	     50.964064	     22343.296
        800.00	    -44.461782	     33.702851	     22344.506
