Title=200311_em_NaOH-MeCN_2,0uM_AT532
Comment=
Signature=ISS_Experiment_Ver_1_0
Timestamp=Wed Mar 11 17:10:09 2020
Product=Vinci2
SoftwareVersion=BETA.2.4
BuildNumber=234
RealTimeStart=22440.1981164

AcquisitionType=Photon Counting
AcquisitionFormat=L
AcquisitionSide=Right
Detector Gains=(0.0, 0.0)

Measurable=Intensity
MaxIterations=10

RightEmissionWavelengthBandwidth=8.0
ExcitationWavelengthBandwidth=8.0
Visualization=Y:Intensity,X:EmissionWavelength,PlotType:2D


EmissionWavelength=type:numeric,unit:nm,from:400.0,to:800.0,step:1.0
ExcitationWavelength=type:numeric,unit:nm,fixed:539.0

Space=EmissionWavelength
Columns=EmissionWavelength,Intensity,IntensityStdError,RealTime
[Data]
        400.00	    -1.5215180	     1.1501009	     22449.425
        401.00	   -0.48258500	     1.7132740	     22450.905
        402.00	    -3.4627483	    0.94319474	     22452.115
        403.00	    0.31995994	     1.7136479	     22453.325
        404.00	    0.20538098	     1.5026849	     22454.535
        405.00	    0.31911014	     1.5403245	     22455.745
        406.00	    0.20456663	     1.5715618	     22456.955
        407.00	     2.9284997	     1.1482436	     22458.165
        408.00	     1.5644162	     1.4659536	     22459.375
        409.00	   -0.70240562	     1.6909557	     22460.585
        410.00	    -1.3821813	    0.78219054	     22461.795
        411.00	    0.43058294	     1.7411309	     22463.005
        412.00	    0.54420787	     1.1611500	     22464.215
        413.00	    0.65780171	    0.91124218	     22465.425
        414.00	   0.090771158	    0.95381729	     22466.635
        415.00	    -1.2729175	     1.1365334	     22467.855
        416.00	    -1.9569444	     1.4311455	     22469.055
        417.00	    0.31883197	     1.5295919	     22470.265
        418.00	   -0.70715722	     1.7360254	     22471.475
        419.00	    -1.9643569	     1.2182058	     22472.685
        420.00	     1.2358720	     1.3080734	     22473.895
        421.00	    -1.2859240	     1.2577314	     22475.105
        422.00	   -0.48320008	     1.0579101	     22476.315
        423.00	   -0.36833572	     1.1484884	     22477.525
        424.00	     1.0133578	     1.2960188	     22478.735
        425.00	     1.8272556	     1.4835374	     22479.945
        426.00	   -0.13899336	     1.0643840	     22481.155
        427.00	     2.7674700	     1.9476701	     22482.365
        428.00	    -2.4697218	     1.4108404	     22483.575
        429.00	    -1.0740941	     1.5740730	     22484.785
        430.00	   0.093805136	     1.0010766	     22485.995
        431.00	    0.68264138	     1.6556759	     22487.205
        432.00	   -0.61400472	     1.4536314	     22488.415
        433.00	     2.3448154	     1.6414199	     22489.625
        434.00	    0.57011650	     1.4514456	     22490.835
        435.00	    -1.2159086	    0.94784131	     22492.045
        436.00	    -1.2183119	     1.7845430	     22493.255
        437.00	   -0.26372186	     1.4998841	     22494.465
        438.00	    0.21685073	     1.3800413	     22495.675
        439.00	    -1.8370719	     1.8566865	     22496.885
        440.00	    -1.1165725	     1.5115432	     22498.095
        441.00	    -3.0707514	     1.3124208	     22499.305
        442.00	    -1.3706874	     1.4708583	     22500.515
        443.00	  -0.024599917	     1.3023508	     22501.725
        444.00	     2.3202382	     1.0727732	     22502.935
        445.00	    -1.0146024	     1.6502754	     22504.145
        446.00	   0.099465348	     1.7465541	     22505.355
        447.00	    -1.0238743	     1.7564811	     22506.565
        448.00	    -1.6584608	     1.0224290	     22507.775
        449.00	   -0.65671537	     1.2084152	     22508.985
        450.00	   -0.91357132	     1.1380412	     22510.195
        451.00	    -1.6788693	     1.4538693	     22511.405
        452.00	    0.35833129	     1.0483925	     22512.615
        453.00	    0.10265574	     1.3499002	     22513.825
        454.00	   -0.41304565	    0.83429712	     22515.035
        455.00	     2.0487115	     1.3674754	     22516.255
        456.00	    -1.0695520	     1.8956487	     22517.455
        457.00	     1.8083741	     1.7823584	     22518.665
        458.00	   -0.28992250	     1.6371524	     22519.875
        459.00	    0.37069265	    0.76943420	     22521.085
        460.00	     1.0356201	     1.4604899	     22522.295
        461.00	    0.64081052	     1.8901027	     22523.505
        462.00	    -1.1027996	     2.4802368	     22524.715
        463.00	    -2.7259922	     2.0658095	     22525.924
        464.00	    -2.7410959	     2.1829126	     22527.135
        465.00	    0.24603992	     1.7534337	     22528.355
        466.00	     1.0707959	     1.7776059	     22529.555
        467.00	     4.1081229	     1.7492026	     22530.765
        468.00	  -0.027754689	     2.2891777	     22531.975
        469.00	     5.1264534	     1.8550874	     22533.185
        470.00	     2.0696695	     1.6961413	     22534.395
        471.00	     1.3818797	     1.1599294	     22535.604
        472.00	    -2.2950823	     1.6796054	     22536.815
        473.00	    -3.0179920	     1.9449821	     22538.025
        474.00	    -2.4622347	     2.1678767	     22539.234
        475.00	   -0.74908391	     2.0842332	     22540.445
        476.00	     3.4458056	     1.9692447	     22541.664
        477.00	    0.40750063	     1.6692633	     22542.865
        478.00	  -0.029238468	     1.5783056	     22544.074
        479.00	    -1.6464412	     2.0322221	     22545.284
        480.00	    0.41432298	     1.7396822	     22546.495
        481.00	    -2.4114043	     2.4534273	     22547.704
        482.00	   -0.17978701	     2.1188103	     22548.915
        483.00	    -1.8390164	     1.8454849	     22550.125
        484.00	    0.72773316	     1.9728868	     22551.334
        485.00	    -1.4031653	     2.0563234	     22552.544
        486.00	    0.42935419	     1.4849357	     22553.754
        487.00	    -2.8041307	    0.79728598	     22554.964
        488.00	     2.4527936	     2.1341985	     22556.174
        489.00	     2.3111954	     1.6493793	     22557.394
        490.00	     1.0671744	     2.1159085	     22558.594
        491.00	   -0.34748544	     1.8902495	     22559.804
        492.00	     1.0786550	     1.9896836	     22561.054
        493.00	    0.92601965	     1.1176099	     22562.224
        494.00	    0.12839256	     1.8655006	     22563.434
        495.00	    -1.3213348	     2.1890848	     22564.644
        496.00	     1.4233768	     1.3851217	     22565.854
        497.00	    0.78481980	     1.5064480	     22567.074
        498.00	   -0.36592973	     2.1537653	     22568.274
        499.00	     2.8681249	     2.5677717	     22569.484
        500.00	     2.2528208	     2.5329020	     22570.694
        501.00	     1.9560304	     2.3506078	     22571.904
        502.00	    0.89348064	     2.0802034	     22573.114
        503.00	     2.4494730	     2.0807133	     22574.324
        504.00	     5.4471925	     1.8346160	     22575.534
        505.00	     4.5663577	     3.1055781	     22576.744
        506.00	     5.8708378	     1.7456546	     22577.954
        507.00	     5.3335445	     2.9405593	     22579.164
        508.00	     7.8865811	     2.6473412	     22580.375
        509.00	     6.0360158	     2.5573432	     22581.584
        510.00	     4.5882700	     2.3904922	     22582.794
        511.00	     7.5355952	     1.4396414	     22584.004
        512.00	     6.2709493	     2.0438528	     22585.214
        513.00	     11.481559	     1.6289152	     22586.424
        514.00	     3.5011895	     2.8098085	     22587.674
        515.00	     7.0108541	     1.9616924	     22588.844
        516.00	     13.801790	     3.5627122	     22590.054
        517.00	     10.857612	     2.4752436	     22591.264
        518.00	     10.813199	     3.0406738	     22592.474
        519.00	     16.289284	     2.9884359	     22593.684
        520.00	     11.745129	     2.9125753	     22594.894
        521.00	     19.828837	     3.4520270	     22596.104
        522.00	     23.852831	     3.1722781	     22597.314
        523.00	     27.088038	     2.8670732	     22598.524
        524.00	     32.546416	     2.7948243	     22599.734
        525.00	     39.761890	     3.0537412	     22600.944
        526.00	     49.090518	     4.6223341	     22602.154
        527.00	     51.774765	     2.5253141	     22603.364
        528.00	     59.239979	     3.9115294	     22604.574
        529.00	     71.507768	     3.7485887	     22605.784
        530.00	     92.316125	     2.4540798	     22606.994
        531.00	     117.38461	     2.5506843	     22608.204
        532.00	     133.39220	     3.9814885	     22609.414
        533.00	     168.06921	     3.1550700	     22610.634
        534.00	     231.61324	     2.9206771	     22611.834
        535.00	     387.44353	     5.1807482	     22613.044
        536.00	     720.36923	     9.5391235	     22614.254
        537.00	     1288.6206	     6.7005170	     22615.464
        538.00	     2029.0042	     10.119302	     22616.674
        539.00	     2663.9199	     11.300853	     22617.884
        540.00	     3011.2271	     14.701719	     22619.104
        541.00	     2894.4691	     10.606716	     22620.304
        542.00	     2422.8505	     15.057187	     22621.514
        543.00	     1811.3855	     12.418983	     22622.724
        544.00	     1313.5472	     11.230679	     22623.934
        545.00	     1039.8825	     7.7404252	     22625.144
        546.00	     969.76196	     10.252595	     22629.774
        547.00	     993.21558	     12.483370	     22630.974
        548.00	     1044.6971	     7.5277828	     22632.184
        549.00	     1110.4646	     9.4556046	     22633.394
        550.00	     1146.1218	     8.4010793	     22634.604
        551.00	     1221.3856	     15.917517	     22635.814
        552.00	     1246.6112	     8.5993782	     22637.024
        553.00	     1296.7759	     13.266409	     22638.234
        554.00	     1329.7260	     9.6528072	     22639.444
        555.00	     1356.8858	     9.7363720	     22640.654
        556.00	     1370.9608	     10.547860	     22641.864
        557.00	     1401.4312	     13.103031	     22643.084
        558.00	     1371.8888	     12.521552	     22644.284
        559.00	     1361.8251	     11.019295	     22645.494
        560.00	     1351.1928	     14.380717	     22646.704
        561.00	     1316.1467	     7.4305437	     22647.914
        562.00	     1303.4716	     13.907036	     22649.124
        563.00	     1255.5775	     8.9054775	     22650.334
        564.00	     1232.8865	     10.151807	     22651.544
        565.00	     1217.1462	     17.219699	     22652.754
        566.00	     1169.5540	     10.706838	     22653.964
        567.00	     1138.7238	     5.7406948	     22655.184
        568.00	     1079.3888	     12.629314	     22656.384
        569.00	     1021.4513	     9.8006556	     22657.594
        570.00	     979.39025	     12.655086	     22658.804
        571.00	     957.61691	     8.8493239	     22660.014
        572.00	     911.29305	     11.383565	     22661.224
        573.00	     844.23167	     7.5099645	     22662.434
        574.00	     832.99073	     9.2842016	     22663.644
        575.00	     786.37287	     7.4166944	     22664.854
        576.00	     743.30110	     9.1286223	     22666.064
        577.00	     716.54940	     9.3488793	     22667.274
        578.00	     673.92942	     5.8074300	     22668.484
        579.00	     636.87896	     9.1089290	     22669.694
        580.00	     637.46892	     6.5921353	     22670.904
        581.00	     591.62495	     7.4881322	     22672.114
        582.00	     571.88829	     5.9829935	     22673.324
        583.00	     541.74521	     8.2166430	     22674.534
        584.00	     538.78049	     7.0692065	     22675.744
        585.00	     505.66317	     5.4777980	     22676.954
        586.00	     478.00301	     11.790271	     22678.164
        587.00	     484.92501	     8.2889757	     22679.374
        588.00	     460.82953	     5.6525056	     22680.584
        589.00	     434.66737	     8.5921351	     22681.804
        590.00	     413.92136	     5.4645157	     22683.004
        591.00	     399.51081	     5.2250410	     22684.214
        592.00	     401.12849	     7.0231384	     22685.424
        593.00	     384.00543	     8.4116193	     22686.634
        594.00	     393.67001	     6.9366162	     22687.844
        595.00	     376.99324	     6.6184122	     22689.054
        596.00	     378.80778	     8.3227052	     22690.264
        597.00	     386.21379	     9.7892150	     22691.474
        598.00	     365.06322	     5.8520077	     22692.684
        599.00	     382.63731	     5.6225895	     22693.894
        600.00	     347.84041	     10.222510	     22695.104
        601.00	     345.60256	     6.2985847	     22696.314
        602.00	     341.81503	     3.3250915	     22697.523
        603.00	     339.51229	     5.8124489	     22698.734
        604.00	     328.25927	     6.8678897	     22699.944
        605.00	     330.82187	     9.1720811	     22701.154
        606.00	     320.92644	     4.8885858	     22702.363
        607.00	     329.04416	     7.5000041	     22703.574
        608.00	     313.96976	     7.3929738	     22704.783
        609.00	     305.35664	     7.3840563	     22705.994
        610.00	     284.79631	     7.9466786	     22707.203
        611.00	     283.37425	     7.0836365	     22708.413
        612.00	     274.60324	     9.7884840	     22709.624
        613.00	     279.38089	     6.3927868	     22710.833
        614.00	     273.88765	     7.6195233	     22712.043
        615.00	     256.77398	     5.5421593	     22713.263
        616.00	     247.08041	     9.4230687	     22714.463
        617.00	     237.78985	     5.2245499	     22715.673
        618.00	     226.35052	     6.6094666	     22716.883
        619.00	     226.61146	     7.7296310	     22718.093
        620.00	     205.46540	     6.9626306	     22719.303
        621.00	     207.73990	     7.9806129	     22720.513
        622.00	     193.82707	     6.1386999	     22721.723
        623.00	     188.14208	     6.9727177	     22722.933
        624.00	     178.81357	     6.1125603	     22724.143
        625.00	     168.80227	     5.9723070	     22725.353
        626.00	     172.12703	     5.2501413	     22726.564
        627.00	     179.03879	     7.1280068	     22727.773
        628.00	     152.93983	     7.5763243	     22728.983
        629.00	     144.26585	     11.925919	     22730.194
        630.00	     153.65330	     8.5570386	     22731.413
        631.00	     133.91883	     7.9328729	     22732.613
        632.00	     130.45131	     5.8272240	     22733.823
        633.00	     126.02112	     5.8796254	     22735.033
        634.00	     118.51541	     7.0008587	     22736.243
        635.00	     112.04859	     6.0456964	     22737.453
        636.00	     107.20947	     6.9380779	     22738.663
        637.00	     99.694058	     4.3848019	     22739.873
        638.00	     111.91413	     8.1130868	     22741.083
        639.00	     114.38416	     7.6658387	     22742.293
        640.00	     100.84525	     5.1356252	     22743.513
        641.00	     96.514604	     5.6929703	     22744.713
        642.00	     91.928750	     7.4291964	     22745.923
        643.00	     85.554353	     6.4337289	     22747.133
        644.00	     88.826298	     5.0689690	     22748.343
        645.00	     87.230015	     11.566776	     22749.553
        646.00	     77.355557	     6.7542554	     22750.763
        647.00	     90.143370	     7.9191699	     22751.974
        648.00	     77.040216	     8.3740445	     22753.183
        649.00	     64.826749	     5.4856843	     22754.393
        650.00	     74.422927	     8.2925113	     22755.603
        651.00	     66.635692	     4.4903297	     22756.813
        652.00	     75.916073	     8.8892283	     22758.023
        653.00	     67.306565	     8.1900784	     22759.233
        654.00	     55.257399	     12.778052	     22760.443
        655.00	     42.244992	     9.0650828	     22761.653
        656.00	     66.867194	     8.8907447	     22762.863
        657.00	     67.788781	     9.4577906	     22764.073
        658.00	     44.050571	     6.7276633	     22765.283
        659.00	     57.822984	     11.118045	     22766.493
        660.00	     39.922967	     7.5825709	     22767.703
        661.00	     60.728381	     13.970639	     22768.913
        662.00	     60.840182	     7.2364096	     22770.123
        663.00	     59.680364	     6.2257339	     22771.333
        664.00	     42.921069	     9.2821907	     22772.543
        665.00	     47.756010	     9.5440455	     22773.753
        666.00	     49.259551	     13.142626	     22774.963
        667.00	     60.294050	     6.7242029	     22776.173
        668.00	     46.893753	     11.297119	     22777.383
        669.00	     44.595850	     8.9881312	     22778.593
        670.00	     43.712614	     9.8822112	     22779.803
        671.00	     61.466301	     10.150375	     22781.013
        672.00	     18.842405	     9.9058926	     22782.223
        673.00	     32.000159	     13.349383	     22783.433
        674.00	     52.057565	     11.439468	     22784.643
        675.00	     38.755371	     8.1137508	     22785.853
        676.00	     51.027246	     10.964098	     22787.063
        677.00	     34.783585	     11.703233	     22788.273
        678.00	     23.181427	     13.162336	     22789.483
        679.00	     42.853550	     8.8977811	     22790.693
        680.00	     41.641836	     13.733308	     22791.903
        681.00	     51.398280	     7.8887291	     22793.113
        682.00	     33.790483	     9.7943428	     22794.323
        683.00	     43.620962	     9.7459837	     22795.533
        684.00	     38.543546	     13.492940	     22796.743
        685.00	     33.420507	     9.2558365	     22797.953
        686.00	     42.621655	     13.330602	     22799.163
        687.00	     24.486424	     13.947796	     22800.373
        688.00	     42.944805	     14.189982	     22801.583
        689.00	     24.219034	     13.350094	     22802.793
        690.00	     24.598954	     13.733473	     22804.003
        691.00	     24.986360	     11.548318	     22805.213
        692.00	     43.457559	     10.977738	     22806.423
        693.00	     45.207485	     12.535047	     22807.633
        694.00	     2.6390121	     18.818352	     22808.843
        695.00	     28.361024	     12.919939	     22813.463
        696.00	     33.328698	     12.808839	     22814.673
        697.00	     17.709605	     18.876556	     22815.883
        698.00	    -25.218238	     16.027015	     22817.093
        699.00	     1.6604149	     7.5941737	     22818.303
        700.00	    -6.7467389	     16.770958	     22819.513
        701.00	     21.278368	     15.473901	     22820.723
        702.00	     10.418223	     17.422665	     22821.933
        703.00	     38.250939	     19.128413	     22823.143
        704.00	     9.4761911	     18.215278	     22824.353
        705.00	     66.806661	     17.378545	     22825.563
        706.00	     12.392710	     19.795123	     22826.773
        707.00	    -35.642481	     16.598234	     22827.983
        708.00	     20.952785	     17.239859	     22829.193
        709.00	    -22.921006	     15.950556	     22830.403
        710.00	    -19.066013	     12.916546	     22831.613
        711.00	     26.185535	     17.724137	     22832.823
        712.00	    -2.3100626	     21.608657	     22834.033
        713.00	     3.5173846	     13.608750	     22835.243
        714.00	     17.001712	     26.627587	     22836.453
        715.00	    -28.106685	     14.326816	     22837.663
        716.00	     12.887494	     21.061090	     22838.873
        717.00	    -5.6168470	     12.781661	     22840.083
        718.00	    -12.037229	     20.145236	     22841.293
        719.00	    -9.0102273	     23.155247	     22842.503
        720.00	    -5.8747076	     16.172927	     22843.713
        721.00	     32.209507	     15.146141	     22844.923
        722.00	    0.67419342	     19.462288	     22846.133
        723.00	     2.3937224	     17.557295	     22847.343
        724.00	    0.69520235	     22.136370	     22848.553
        725.00	     13.059078	     26.181937	     22849.763
        726.00	     22.174466	     19.000153	     22850.973
        727.00	    -28.338272	     26.697811	     22852.183
        728.00	     17.347130	     24.053720	     22853.393
        729.00	    -12.328270	     27.712723	     22854.603
        730.00	     29.224598	     20.643407	     22855.813
        731.00	     16.160436	     33.543671	     22857.023
        732.00	     18.362456	     18.290271	     22858.243
        733.00	     12.694666	     27.926562	     22859.443
        734.00	     37.024258	     21.379332	     22860.652
        735.00	    -7.3383851	     18.781204	     22861.863
        736.00	     40.136906	     27.142298	     22863.073
        737.00	    -43.172153	     24.885481	     22864.283
        738.00	     19.998991	     27.181279	     22865.493
        739.00	    0.86231516	     22.950115	     22866.703
        740.00	     11.807528	     14.301261	     22867.913
        741.00	     7.5439954	     38.580292	     22869.122
        742.00	     12.163348	     32.942268	     22870.332
        743.00	    -51.656079	     29.713674	     22871.542
        744.00	    -19.920501	     35.959226	     22872.752
        745.00	     7.9771814	     29.063381	     22873.962
        746.00	     41.386314	     27.014837	     22875.172
        747.00	    -11.075707	     27.157833	     22876.382
        748.00	     32.643844	     21.190871	     22877.592
        749.00	    -13.804914	     27.302912	     22878.802
        750.00	    -6.4834241	     15.349245	     22880.012
        751.00	    -67.132888	     25.251945	     22881.223
        752.00	    -50.116923	     24.406978	     22882.433
        753.00	     70.892063	     43.644607	     22883.643
        754.00	     48.232716	     28.124352	     22884.852
        755.00	    -20.143870	     43.606045	     22886.062
        756.00	     6.4513848	     34.656623	     22887.273
        757.00	     41.845816	     29.834924	     22888.482
        758.00	     53.558218	     29.519624	     22889.692
        759.00	    -63.144882	     42.485869	     22890.902
        760.00	    -72.465699	     28.990604	     22892.112
        761.00	     18.362615	     41.950374	     22893.322
        762.00	    -36.505490	     38.882832	     22894.532
        763.00	    -60.351057	     35.060884	     22895.742
        764.00	     39.755671	     38.314519	     22896.952
        765.00	     43.207301	     41.043505	     22898.162
        766.00	    -44.357293	     20.380669	     22899.372
        767.00	    -29.512684	     45.598318	     22900.582
        768.00	    -48.503973	     35.054556	     22901.792
        769.00	    -42.725091	     35.107992	     22903.002
        770.00	     45.806562	     31.526088	     22904.213
        771.00	    -40.496196	     56.088904	     22905.432
        772.00	     24.004774	     36.843490	     22906.632
        773.00	    -5.2521633	     39.086098	     22907.842
        774.00	     1.3266857	     37.328388	     22909.052
        775.00	    -32.219217	     43.901854	     22910.262
        776.00	    -46.086085	     28.216423	     22911.472
        777.00	    -5.4804496	     34.555938	     22912.683
        778.00	     67.040581	     32.763406	     22913.892
        779.00	    -19.585968	     38.028271	     22915.102
        780.00	    -19.785472	     52.721285	     22916.312
        781.00	    -84.284574	     48.268716	     22917.522
        782.00	     62.729304	     52.670040	     22918.732
        783.00	    -27.728656	     39.144780	     22919.942
        784.00	    -31.694979	     40.166095	     22921.152
        785.00	    -35.686085	     39.183787	     22922.362
        786.00	    -13.498010	     55.669434	     22923.572
        787.00	     5.3004135	     49.988710	     22924.782
        788.00	    -32.855186	     37.539986	     22925.992
        789.00	    -13.868711	     45.654741	     22927.202
        790.00	    -60.586507	     47.812037	     22928.412
        791.00	    -84.707453	     47.421421	     22929.622
        792.00	    -30.054466	     62.886917	     22930.842
        793.00	     65.399415	     71.136955	     22932.052
        794.00	    -6.4000000	     47.628190	     22933.252
        795.00	    -50.039740	     53.626263	     22934.462
        796.00	    -96.279074	     51.609864	     22935.672
        797.00	     16.785458	     58.050789	     22936.883
        798.00	    -64.753323	     52.549002	     22938.092
        799.00	    -30.821095	     33.555743	     22939.302
        800.00	     40.227327	     42.880275	     22940.512
