Title=200311_em_NaOH-EtOH_2,0uM_ST488
Comment=
Signature=ISS_Experiment_Ver_1_0
Timestamp=Wed Mar 11 14:56:26 2020
Product=Vinci2
SoftwareVersion=BETA.2.4
BuildNumber=234
RealTimeStart=14418.0079248

AcquisitionType=Photon Counting
AcquisitionFormat=L
AcquisitionSide=Right
Detector Gains=(0.0, 0.0)

Measurable=Intensity
MaxIterations=10

RightEmissionWavelengthBandwidth=8.0
ExcitationWavelengthBandwidth=8.0
Visualization=Y:Intensity,X:EmissionWavelength,PlotType:2D


EmissionWavelength=type:numeric,unit:nm,from:500.0,to:800.0,step:1.0
ExcitationWavelength=type:numeric,unit:nm,fixed:488.0

Space=EmissionWavelength
Columns=EmissionWavelength,Intensity,IntensityStdError,RealTime
[Data]
        500.00	     25.027431	     2.6762795	     14425.470
        501.00	     24.486602	     3.0426181	     14426.920
        502.00	     21.443535	     2.7187750	     14428.130
        503.00	     19.940241	     4.0789651	     14429.339
        504.00	     20.221232	     2.4051187	     14430.549
        505.00	     23.472681	     2.2101365	     14431.760
        506.00	     15.940955	     2.4508966	     14432.970
        507.00	     19.680366	     3.3333652	     14434.180
        508.00	     20.279780	     4.1238243	     14435.389
        509.00	     20.790721	     3.1584723	     14436.600
        510.00	     18.774022	     1.8078203	     14437.810
        511.00	     19.617807	     3.1968846	     14439.020
        512.00	     28.871619	     3.1180943	     14440.229
        513.00	     25.603038	     2.9638477	     14441.440
        514.00	     26.509006	     3.4706224	     14442.650
        515.00	     29.495368	     3.2437173	     14443.859
        516.00	     36.611933	     2.2380493	     14445.069
        517.00	     32.531710	     3.3865933	     14446.280
        518.00	     29.736296	     2.9441198	     14447.489
        519.00	     35.354685	     2.4305422	     14448.700
        520.00	     37.633183	     3.0291704	     14449.910
        521.00	     36.535342	     2.9029217	     14451.119
        522.00	     38.310320	     3.4705965	     14452.339
        523.00	     39.113669	     3.1334629	     14453.539
        524.00	     40.521097	     1.5750492	     14454.749
        525.00	     40.650876	     3.8002066	     14455.959
        526.00	     46.745172	     2.6991677	     14457.169
        527.00	     45.581224	     1.7593441	     14458.380
        528.00	     46.328181	     3.8525463	     14459.590
        529.00	     44.351890	     3.4019079	     14460.799
        530.00	     48.156070	     4.1276629	     14462.010
        531.00	     51.503825	     3.0298099	     14463.219
        532.00	     47.593221	     2.8343407	     14464.430
        533.00	     48.601795	     2.8684420	     14465.639
        534.00	     54.341776	     4.5003421	     14466.860
        535.00	     50.420733	     4.0508943	     14468.060
        536.00	     44.624643	     4.0901212	     14469.269
        537.00	     41.699408	     3.2459956	     14470.479
        538.00	     45.903359	     3.7376969	     14471.689
        539.00	     46.337129	     2.5832531	     14472.899
        540.00	     34.056152	     3.0272149	     14474.119
        541.00	     32.562991	     3.3305520	     14475.319
        542.00	     37.883915	     3.1639791	     14476.530
        543.00	     38.524477	     1.7068259	     14477.740
        544.00	     32.246836	     2.2249101	     14478.949
        545.00	     38.543335	     3.6523506	     14480.159
        546.00	     38.801048	     2.2372997	     14481.369
        547.00	     30.606135	     3.1328244	     14482.579
        548.00	     36.616133	     2.6479445	     14483.789
        549.00	     33.737567	     2.6629796	     14484.999
        550.00	     31.022710	     3.8843504	     14486.209
        551.00	     38.016246	     4.2577505	     14487.419
        552.00	     37.358506	     2.8098163	     14488.629
        553.00	     32.795321	     3.1331115	     14489.849
        554.00	     29.282373	     2.0301834	     14491.049
        555.00	     26.231537	     3.9897265	     14492.259
        556.00	     25.235584	     2.2958008	     14493.469
        557.00	     26.150178	     3.2081506	     14494.679
        558.00	     22.993084	     2.7006041	     14495.889
        559.00	     24.147886	     2.6944269	     14497.099
        560.00	     22.844030	     2.4371513	     14498.309
        561.00	     26.929958	     2.6079230	     14499.519
        562.00	     19.262156	     3.3863281	     14500.729
        563.00	     28.332863	     3.5174051	     14501.939
        564.00	     27.065071	     4.7467916	     14503.149
        565.00	     28.275251	     3.8868760	     14504.359
        566.00	     22.435657	     3.7929096	     14505.579
        567.00	     23.871756	     3.0972421	     14506.779
        568.00	     23.287616	     2.4111936	     14507.989
        569.00	     33.937163	     4.6990085	     14509.199
        570.00	     24.709026	     5.2961140	     14510.409
        571.00	     30.996659	     4.2791120	     14511.619
        572.00	     34.982049	     3.2582904	     14512.829
        573.00	     24.253040	     3.3833415	     14514.039
        574.00	     21.442039	     2.4282250	     14515.249
        575.00	     26.852290	     3.1323735	     14516.469
        576.00	     26.465899	     2.7648544	     14517.670
        577.00	     16.146498	     4.3582123	     14518.879
        578.00	     25.784834	     3.3103179	     14520.089
        579.00	     27.418122	     3.0842979	     14521.299
        580.00	     15.148002	     4.9645571	     14522.509
        581.00	     18.995815	     3.2421918	     14523.719
        582.00	     17.967194	     3.9711911	     14524.929
        583.00	     14.331576	     3.8153223	     14526.139
        584.00	     17.971095	     4.4468934	     14527.349
        585.00	     17.518293	     2.4640024	     14528.559
        586.00	     25.126641	     2.7223377	     14529.769
        587.00	     21.407900	     5.3636363	     14530.979
        588.00	     17.007236	     2.4481263	     14532.189
        589.00	     23.568142	     4.5463939	     14533.399
        590.00	     24.051605	     5.2084688	     14534.609
        591.00	     8.7348464	     3.4569072	     14535.819
        592.00	     14.446629	     3.6242358	     14537.029
        593.00	     18.306943	     2.5273167	     14538.239
        594.00	     20.986435	     3.7345703	     14539.449
        595.00	     14.443206	     5.1524269	     14540.659
        596.00	     18.443825	     4.8019095	     14541.869
        597.00	     25.448195	     3.7904155	     14543.079
        598.00	     15.798211	     3.4566599	     14544.289
        599.00	     18.903830	     5.4594224	     14545.499
        600.00	     23.726995	     4.8724122	     14546.709
        601.00	     10.145021	     2.6141048	     14547.919
        602.00	     20.757174	     4.5279094	     14549.129
        603.00	     15.799222	     3.9635617	     14550.339
        604.00	     17.313107	     5.0176173	     14551.549
        605.00	     17.136698	     5.0661059	     14552.759
        606.00	     20.110640	     3.6986078	     14553.969
        607.00	     14.256925	     3.9297027	     14555.179
        608.00	     5.0790278	     2.5820070	     14556.389
        609.00	     18.145009	     4.7663878	     14557.599
        610.00	     12.490426	     2.0695637	     14558.809
        611.00	     12.974472	     4.2914660	     14560.018
        612.00	     26.872261	     5.2062550	     14561.229
        613.00	     20.761746	     5.6903261	     14562.439
        614.00	     17.910082	     5.1471222	     14563.649
        615.00	     18.477912	     5.2703173	     14564.859
        616.00	     13.636297	     2.3810691	     14566.069
        617.00	     18.466076	     6.1666210	     14567.279
        618.00	     13.934135	     5.5982506	     14568.489
        619.00	     15.672493	     6.0251965	     14569.699
        620.00	     13.433343	     5.6518029	     14570.909
        621.00	     13.991147	     5.0455403	     14572.119
        622.00	     22.822641	     5.1566730	     14573.329
        623.00	     17.233112	     7.7929295	     14574.539
        624.00	     17.424595	     4.2386587	     14575.749
        625.00	     22.318841	     6.7768856	     14576.959
        626.00	     11.336672	     4.6266936	     14578.169
        627.00	     19.357912	     7.2539662	     14579.379
        628.00	     14.241361	     6.4615698	     14580.589
        629.00	     9.9524606	     6.6511765	     14581.799
        630.00	     11.882280	     3.2033206	     14583.009
        631.00	     17.990466	     4.7497813	     14584.229
        632.00	     27.502555	     5.6347425	     14585.429
        633.00	     17.034968	     6.6346293	     14586.639
        634.00	     23.436326	     7.0367792	     14587.849
        635.00	     11.166354	     5.2626961	     14589.059
        636.00	     4.9751437	     5.5968462	     14590.269
        637.00	     10.473310	     7.4450446	     14591.479
        638.00	     8.6010861	     4.0005051	     14592.689
        639.00	     18.337938	     5.4166200	     14593.899
        640.00	     11.375836	     8.7112259	     14595.109
        641.00	     19.323699	     3.1739180	     14596.319
        642.00	     16.408335	     6.1829945	     14597.529
        643.00	     13.407772	     5.0162573	     14598.739
        644.00	     8.1927168	     7.1415362	     14599.948
        645.00	     12.118312	     5.0850290	     14601.159
        646.00	     14.607916	     9.7528529	     14602.368
        647.00	     16.481437	     8.1130130	     14606.988
        648.00	     16.111503	     4.5698600	     14608.198
        649.00	     12.873397	     6.4567363	     14609.408
        650.00	     12.462055	     8.2834187	     14610.619
        651.00	     30.954878	     6.4592589	     14611.829
        652.00	     13.411041	     8.0225772	     14613.038
        653.00	     18.466783	     5.8825772	     14614.248
        654.00	     13.168244	     8.3089689	     14615.458
        655.00	     14.580130	     7.3986945	     14616.668
        656.00	     23.005348	     7.8147555	     14617.878
        657.00	     19.478062	     12.570132	     14619.089
        658.00	     8.0564466	     6.8348701	     14620.298
        659.00	     20.020714	     7.6802515	     14621.508
        660.00	    -9.7470789	     6.4073380	     14622.718
        661.00	     19.882120	     6.3957584	     14623.928
        662.00	     24.253856	     8.6332118	     14625.138
        663.00	     9.3207095	     7.9273891	     14626.348
        664.00	     18.636780	     10.976784	     14627.559
        665.00	     13.154350	     6.2324438	     14628.779
        666.00	     24.266504	     7.9182344	     14629.978
        667.00	     11.351203	     9.8554832	     14631.188
        668.00	     33.154182	     8.2552539	     14632.398
        669.00	     23.814791	     10.241184	     14633.608
        670.00	     11.851659	     10.030924	     14634.818
        671.00	     21.372800	     7.9759867	     14636.038
        672.00	     4.2751675	     7.4127033	     14637.238
        673.00	     8.3618505	     8.2344350	     14638.448
        674.00	     1.1423290	     11.217448	     14639.659
        675.00	     5.2998798	     5.2082256	     14640.869
        676.00	     16.281720	     6.7663619	     14642.078
        677.00	     2.8986321	     9.7990472	     14643.288
        678.00	     16.780586	     8.0782810	     14644.498
        679.00	     3.8638447	     10.794815	     14645.708
        680.00	     14.592438	     13.317050	     14646.918
        681.00	     10.315852	     12.871642	     14648.128
        682.00	    -6.9784693	     10.933285	     14649.338
        683.00	     8.7614753	     10.043528	     14650.548
        684.00	     13.603604	     12.516958	     14651.758
        685.00	     19.591332	     11.107742	     14652.969
        686.00	     3.3085303	     10.303399	     14654.178
        687.00	     32.977683	     10.557476	     14655.388
        688.00	     6.4216530	     13.528114	     14656.598
        689.00	     13.635927	     21.796213	     14657.808
        690.00	     7.6484143	     9.7506752	     14659.018
        691.00	     17.217492	     12.102368	     14660.228
        692.00	     18.533371	     11.233134	     14661.439
        693.00	     26.389058	     11.052913	     14662.648
        694.00	     21.332015	     15.311107	     14663.858
        695.00	     8.2626605	     10.533754	     14665.068
        696.00	    -6.3483234	     8.1045457	     14666.278
        697.00	     15.409656	     10.061819	     14667.488
        698.00	     22.649714	     18.439448	     14668.698
        699.00	     4.0324363	     14.733925	     14669.908
        700.00	    -17.589712	     6.5865920	     14671.118
        701.00	     10.272316	     17.599113	     14672.328
        702.00	     1.7363705	     13.210096	     14673.538
        703.00	     42.025703	     16.184326	     14674.758
        704.00	     42.770917	     15.325240	     14675.958
        705.00	     14.817042	     12.712676	     14677.169
        706.00	     20.302951	     17.517783	     14678.378
        707.00	    -23.582995	     11.085503	     14679.588
        708.00	     8.7076509	     20.862080	     14680.798
        709.00	   -0.82847008	     13.536687	     14682.008
        710.00	     14.579892	     15.099062	     14683.218
        711.00	    -6.5463839	     13.984028	     14684.428
        712.00	     6.3526722	     16.391229	     14685.638
        713.00	     7.9141154	     18.337615	     14686.848
        714.00	     24.458603	     23.189746	     14688.058
        715.00	     32.337799	     13.895294	     14689.268
        716.00	     19.024395	     19.780339	     14690.478
        717.00	     19.346917	     21.544056	     14691.688
        718.00	    -31.043380	     12.085297	     14692.898
        719.00	     24.778125	     15.442006	     14694.118
        720.00	     47.976779	     27.869370	     14695.318
        721.00	    -9.2975896	     18.685878	     14696.528
        722.00	    -7.7532243	     26.165741	     14697.738
        723.00	    -1.0258810	     22.402100	     14698.948
        724.00	     14.599249	     26.192107	     14700.158
        725.00	     20.118039	     22.018037	     14701.378
        726.00	    -8.2260116	     31.928279	     14702.578
        727.00	    -8.3561573	     18.054206	     14703.788
        728.00	     28.419766	     23.416000	     14704.998
        729.00	     36.237643	     25.860178	     14706.208
        730.00	     44.406208	     18.860685	     14707.428
        731.00	    -8.8497627	     32.755903	     14708.628
        732.00	     16.409003	     26.240654	     14709.838
        733.00	     10.711125	     22.216059	     14711.048
        734.00	     24.951130	     31.998779	     14712.258
        735.00	     29.353541	     34.912320	     14713.468
        736.00	     29.792343	     29.420944	     14714.678
        737.00	     21.795650	     21.234949	     14715.888
        738.00	    -5.5316359	     25.775695	     14717.098
        739.00	     7.3296788	     20.438971	     14718.308
        740.00	     59.912270	     34.038608	     14719.518
        741.00	     14.200462	     30.097568	     14720.728
        742.00	     32.435596	     36.474902	     14721.938
        743.00	     16.913937	     27.268818	     14723.148
        744.00	     47.253282	     36.900190	     14724.358
        745.00	     29.093250	     23.926943	     14725.568
        746.00	     10.465505	     39.800315	     14726.779
        747.00	     5.7786297	     26.326826	     14727.988
        748.00	     35.079952	     32.884949	     14729.198
        749.00	     10.846718	     21.427865	     14730.408
        750.00	     38.401820	     19.117789	     14731.618
        751.00	     23.723652	     22.337111	     14732.828
        752.00	     24.035667	     28.075141	     14734.038
        753.00	     24.320635	     27.611356	     14735.248
        754.00	     19.397940	     24.729703	     14736.458
        755.00	    -36.046925	     30.039104	     14737.668
        756.00	    -39.245924	     24.522309	     14738.878
        757.00	     14.673208	     28.484474	     14740.088
        758.00	    -9.9386383	     29.042420	     14741.298
        759.00	    -29.616626	     34.909741	     14742.508
        760.00	    -24.343946	     15.817011	     14743.718
        761.00	     64.269153	     29.259792	     14744.928
        762.00	     56.206866	     21.268519	     14746.138
        763.00	    -13.476450	     47.330153	     14747.348
        764.00	     42.722512	     29.996249	     14748.558
        765.00	    -31.805375	     37.755552	     14749.768
        766.00	    -4.8610732	     34.551540	     14750.978
        767.00	     59.640217	     40.279166	     14752.187
        768.00	     47.882127	     19.361731	     14753.398
        769.00	     35.813679	     28.118391	     14754.608
        770.00	     26.720495	     42.730401	     14755.818
        771.00	     17.355513	     26.000403	     14757.028
        772.00	     66.175324	     34.601476	     14758.238
        773.00	     57.117276	     43.781703	     14759.447
        774.00	    -35.157171	     38.058002	     14760.658
        775.00	     8.0548044	     44.692942	     14761.868
        776.00	    -8.8105752	     35.378887	     14763.078
        777.00	    -19.181573	     30.636644	     14764.288
        778.00	     49.762081	     36.060175	     14765.497
        779.00	     32.876446	     40.132382	     14766.708
        780.00	     19.078848	     48.113317	     14767.917
        781.00	    -30.713870	     43.918136	     14769.128
        782.00	     26.677980	     36.071347	     14770.338
        783.00	     16.053433	     33.527469	     14771.547
        784.00	     126.77992	     39.234746	     14772.757
        785.00	    -57.989887	     44.676392	     14773.967
        786.00	     20.247014	     48.227342	     14775.177
        787.00	    -36.345692	     32.519548	     14776.387
        788.00	     97.037409	     42.408215	     14777.597
        789.00	     20.803067	     55.515851	     14778.807
        790.00	     83.112260	     67.031428	     14780.018
        791.00	     17.255222	     50.628172	     14781.227
        792.00	    -26.099931	     33.581224	     14782.437
        793.00	     57.423877	     44.485428	     14783.648
        794.00	     37.600000	     54.731669	     14784.867
        795.00	     57.982556	     62.946781	     14786.068
        796.00	     57.141239	     39.159572	     14790.687
        797.00	     25.178187	     34.708625	     14791.897
        798.00	     94.186652	     56.253689	     14793.107
        799.00	     66.659577	     49.845705	     14794.317
        800.00	    -8.4689109	     25.877228	     14795.527
