Title=200311_em_EtOH_2,0uM_AT488
Comment=
Signature=ISS_Experiment_Ver_1_0
Timestamp=Wed Mar 11 16:21:14 2020
Product=Vinci2
SoftwareVersion=BETA.2.4
BuildNumber=234
RealTimeStart=19505.2106471

AcquisitionType=Photon Counting
AcquisitionFormat=L
AcquisitionSide=Right
Detector Gains=(0.0, 0.0)

Measurable=Intensity
MaxIterations=10

RightEmissionWavelengthBandwidth=8.0
ExcitationWavelengthBandwidth=8.0
Visualization=Y:Intensity,X:EmissionWavelength,PlotType:2D


EmissionWavelength=type:numeric,unit:nm,from:400.0,to:800.0,step:1.0
ExcitationWavelength=type:numeric,unit:nm,fixed:509.0

Space=EmissionWavelength
Columns=EmissionWavelength,Intensity,IntensityStdError,RealTime
[Data]
        400.00	     20.655760	     1.8200920	     19514.225
        401.00	     21.739305	     1.7484456	     19515.705
        402.00	     23.413682	     1.7468755	     19516.915
        403.00	     21.048794	     2.0824725	     19518.125
        404.00	     21.017320	     2.2465544	     19519.335
        405.00	     23.500182	     2.1250252	     19520.545
        406.00	     21.729522	     1.4788820	     19521.755
        407.00	     24.994404	     2.1150919	     19522.965
        408.00	     24.055733	     1.9197557	     19524.175
        409.00	     24.833438	     1.4048925	     19525.385
        410.00	     24.380771	     2.0125333	     19526.595
        411.00	     27.557308	     1.4994434	     19527.805
        412.00	     26.099302	     1.1369114	     19529.015
        413.00	     28.376205	     2.3258339	     19530.225
        414.00	     31.906062	     1.7430662	     19531.435
        415.00	     27.981454	     1.4813740	     19532.645
        416.00	     25.622318	     1.3882932	     19533.855
        417.00	     27.806702	    0.90539628	     19535.065
        418.00	     28.423158	    0.83642252	     19536.275
        419.00	     32.457571	     2.4164028	     19537.485
        420.00	     30.347523	     1.3646883	     19538.695
        421.00	     35.730317	    0.73017459	     19539.905
        422.00	     34.767396	     1.3400293	     19541.115
        423.00	     33.288341	     1.8812211	     19542.325
        424.00	     33.302622	     1.7938462	     19543.535
        425.00	     34.602207	     1.2574530	     19544.745
        426.00	     38.825478	     1.2570266	     19545.955
        427.00	     34.209650	     2.0688592	     19547.165
        428.00	     35.554674	     2.9162884	     19548.375
        429.00	     37.966890	     1.2306463	     19549.585
        430.00	     35.786659	     1.6947057	     19550.795
        431.00	     38.628087	     2.1563474	     19552.005
        432.00	     38.753144	     1.1944746	     19553.215
        433.00	     42.064567	     2.5399337	     19554.425
        434.00	     39.931910	     1.9988768	     19555.635
        435.00	     42.103815	     2.4157138	     19556.845
        436.00	     46.367516	     1.2596622	     19558.055
        437.00	     42.459219	     1.6226039	     19559.275
        438.00	     42.189514	     2.1494604	     19560.475
        439.00	     44.863231	     1.8740879	     19561.685
        440.00	     42.259842	     1.7168593	     19562.895
        441.00	     43.039261	     1.5176288	     19564.105
        442.00	     45.918028	     1.3281651	     19565.315
        443.00	     43.197454	     1.6110389	     19566.525
        444.00	     49.638287	     2.2834910	     19567.735
        445.00	     47.290369	     1.4990364	     19568.945
        446.00	     49.633209	     2.5561175	     19570.155
        447.00	     49.345745	     2.5179788	     19571.365
        448.00	     49.527670	     2.6517224	     19572.575
        449.00	     51.299574	     2.5844352	     19573.785
        450.00	     51.667533	     1.7924286	     19574.995
        451.00	     51.663387	     2.6910411	     19576.205
        452.00	     51.855657	     2.1157922	     19577.415
        453.00	     52.123450	     3.2487945	     19578.625
        454.00	     57.206823	     2.0795207	     19579.835
        455.00	     52.670039	     2.0222058	     19581.045
        456.00	     54.808017	     2.6464330	     19582.255
        457.00	     53.360139	     2.0375927	     19583.465
        458.00	     58.274422	     3.0437139	     19584.675
        459.00	     60.925986	     2.3948446	     19585.885
        460.00	     62.429304	     1.7619730	     19587.094
        461.00	     62.105220	     1.9801575	     19588.305
        462.00	     62.294728	     1.9826494	     19589.514
        463.00	     68.041844	     2.6494403	     19590.724
        464.00	     70.590004	     2.4463272	     19591.934
        465.00	     72.472427	     1.7439364	     19593.144
        466.00	     75.806861	     2.7230387	     19594.355
        467.00	     79.984326	     3.3595396	     19595.564
        468.00	     83.569368	     2.1303720	     19596.775
        469.00	     89.322879	     3.3754319	     19597.985
        470.00	     96.379476	     2.8216021	     19599.194
        471.00	     103.66918	     4.2458826	     19600.404
        472.00	     108.12388	     2.8631872	     19601.614
        473.00	     125.58833	     2.4843655	     19602.824
        474.00	     134.16316	     2.5679054	     19604.034
        475.00	     149.55748	     4.0577509	     19605.244
        476.00	     161.60539	     3.2692760	     19606.454
        477.00	     182.24010	     3.5053052	     19607.664
        478.00	     205.28328	     3.0311172	     19608.874
        479.00	     224.65102	     5.0925924	     19610.084
        480.00	     259.27740	     3.5296946	     19611.294
        481.00	     290.73796	     5.3384235	     19612.504
        482.00	     332.03665	     6.4050948	     19613.714
        483.00	     375.52111	     4.7306344	     19614.924
        484.00	     442.73466	     5.4394839	     19616.134
        485.00	     481.68225	     5.6385829	     19617.344
        486.00	     570.15169	     5.2527767	     19618.554
        487.00	     650.83565	     9.3619053	     19619.774
        488.00	     763.65711	     6.9817786	     19620.974
        489.00	     888.43599	     7.1947522	     19622.184
        490.00	     1065.9503	     12.346298	     19623.394
        491.00	     1264.8786	     11.614037	     19624.604
        492.00	     1538.8600	     11.157053	     19625.814
        493.00	     1835.1474	     11.036989	     19627.024
        494.00	     2224.9146	     12.310798	     19628.234
        495.00	     2770.1624	     10.251127	     19629.444
        496.00	     3378.7730	     14.445407	     19630.654
        497.00	     4109.8724	     9.7081316	     19631.864
        498.00	     5164.2998	     17.534741	     19633.074
        499.00	     6447.8520	     17.093120	     19634.284
        500.00	     7980.8290	     25.387383	     19635.504
        501.00	     9901.3532	     15.347142	     19636.704
        502.00	     12234.952	     41.868988	     19637.914
        503.00	     15017.604	     30.340000	     19639.124
        504.00	     18431.732	     33.152016	     19640.334
        505.00	     22470.526	     32.141063	     19641.544
        506.00	     27212.597	     45.373232	     19642.754
        507.00	     32520.606	     47.892440	     19643.964
        508.00	     38635.526	     56.147002	     19645.174
        509.00	     45257.375	     60.093871	     19646.384
        510.00	     52552.992	     50.912017	     19647.594
        511.00	     60292.592	     52.301758	     19648.804
        512.00	     68624.640	     39.913836	     19650.014
        513.00	     77029.986	     81.897520	     19651.224
        514.00	     85047.268	     39.261493	     19652.434
        515.00	     93218.888	     67.163794	     19653.644
        516.00	     101037.41	     67.729115	     19654.854
        517.00	     108061.04	     42.042502	     19656.064
        518.00	     114579.81	     58.123630	     19657.274
        519.00	     120508.49	     59.257655	     19658.484
        520.00	     125318.74	     73.135994	     19659.694
        521.00	     129728.69	     47.537483	     19660.904
        522.00	     133308.21	     71.351193	     19662.114
        523.00	     136298.02	     52.160996	     19663.324
        524.00	     138705.66	     77.416026	     19664.544
        525.00	     140287.99	     55.289898	     19665.744
        526.00	     141805.12	     63.060116	     19666.954
        527.00	     142991.50	     49.823062	     19668.164
        528.00	     144098.14	     60.597190	     19669.384
        529.00	     144492.89	     43.538114	     19670.584
        530.00	     144968.16	     37.263912	     19671.794
        531.00	     144731.51	     33.223745	     19673.004
        532.00	     144661.30	     42.812710	     19674.214
        533.00	     144367.95	     62.275505	     19675.424
        534.00	     143787.51	     45.022151	     19676.634
        535.00	     142979.52	     42.327570	     19677.844
        536.00	     141941.41	     58.113748	     19679.054
        537.00	     140649.72	     52.612198	     19680.264
        538.00	     139311.90	     73.043425	     19681.474
        539.00	     137714.33	     57.759383	     19682.684
        540.00	     135938.09	     71.375785	     19683.894
        541.00	     134001.46	     90.593512	     19685.104
        542.00	     131640.41	     89.146066	     19686.314
        543.00	     129273.88	     82.439840	     19687.524
        544.00	     126966.85	     67.935057	     19688.734
        545.00	     124184.00	     101.61502	     19689.944
        546.00	     121309.74	     58.926125	     19694.564
        547.00	     118591.33	     90.642326	     19695.774
        548.00	     115742.75	     87.099542	     19696.984
        549.00	     113022.51	     73.856402	     19698.194
        550.00	     110340.09	     80.567208	     19699.404
        551.00	     107252.06	     85.099037	     19700.614
        552.00	     104634.35	     106.21330	     19701.824
        553.00	     101951.10	     67.856078	     19703.034
        554.00	     99169.421	     103.74100	     19704.244
        555.00	     96828.597	     65.321705	     19705.464
        556.00	     94337.392	     63.012787	     19706.664
        557.00	     92296.460	     93.194909	     19707.874
        558.00	     90274.005	     91.845284	     19709.084
        559.00	     88238.209	     89.098035	     19710.294
        560.00	     86310.030	     78.551069	     19711.504
        561.00	     84597.556	     73.467601	     19712.714
        562.00	     82927.373	     82.296478	     19713.924
        563.00	     81527.541	     104.38389	     19715.134
        564.00	     80030.664	     116.19442	     19716.344
        565.00	     78666.284	     94.418393	     19717.554
        566.00	     77485.027	     67.802779	     19718.764
        567.00	     75821.360	     91.686891	     19719.974
        568.00	     74475.811	     80.766491	     19721.184
        569.00	     73335.134	     68.143531	     19722.394
        570.00	     71950.585	     94.369309	     19723.614
        571.00	     70511.421	     76.071501	     19724.814
        572.00	     69018.463	     101.98316	     19726.024
        573.00	     67679.534	     49.277195	     19727.234
        574.00	     66159.628	     67.497407	     19728.444
        575.00	     64506.584	     82.738815	     19729.654
        576.00	     63237.652	     77.300037	     19730.864
        577.00	     61599.001	     59.118030	     19732.074
        578.00	     59837.986	     54.737992	     19733.284
        579.00	     58280.546	     105.43065	     19734.494
        580.00	     56614.347	     92.334784	     19735.704
        581.00	     54976.357	     57.814901	     19736.914
        582.00	     53385.503	     39.950377	     19738.124
        583.00	     51511.644	     89.922045	     19739.334
        584.00	     49841.424	     58.378012	     19740.544
        585.00	     48185.486	     54.935834	     19741.754
        586.00	     46535.434	     63.685502	     19742.964
        587.00	     44962.724	     76.799771	     19744.174
        588.00	     43170.963	     68.219062	     19745.384
        589.00	     41672.078	     71.101249	     19746.594
        590.00	     40107.867	     77.651691	     19747.804
        591.00	     38588.941	     84.376173	     19749.014
        592.00	     37171.740	     47.498482	     19750.224
        593.00	     35658.402	     45.772612	     19751.434
        594.00	     34181.069	     56.541959	     19752.644
        595.00	     33035.766	     95.944144	     19753.853
        596.00	     31572.603	     74.995286	     19755.064
        597.00	     30401.286	     40.874146	     19756.273
        598.00	     29239.276	     40.415922	     19757.484
        599.00	     27979.122	     42.122306	     19758.704
        600.00	     26886.284	     48.384096	     19759.903
        601.00	     25911.256	     51.055260	     19761.113
        602.00	     24775.790	     33.759058	     19762.324
        603.00	     23830.972	     71.906505	     19763.533
        604.00	     22984.150	     17.790728	     19764.743
        605.00	     22046.920	     41.199304	     19765.953
        606.00	     21222.140	     64.260954	     19767.163
        607.00	     20407.760	     37.400011	     19768.373
        608.00	     19624.147	     52.663491	     19769.583
        609.00	     18933.124	     40.598903	     19770.794
        610.00	     18252.602	     33.206207	     19772.003
        611.00	     17731.680	     39.974542	     19773.213
        612.00	     17058.080	     60.430883	     19774.423
        613.00	     16517.398	     41.264436	     19775.633
        614.00	     15949.231	     70.961261	     19776.843
        615.00	     15417.709	     49.024196	     19778.053
        616.00	     15007.443	     36.033271	     19779.263
        617.00	     14499.547	     37.711086	     19780.473
        618.00	     14019.798	     48.828671	     19781.683
        619.00	     13577.257	     28.590890	     19782.894
        620.00	     13139.347	     45.319909	     19784.103
        621.00	     12740.698	     43.120330	     19785.313
        622.00	     12335.968	     47.740719	     19786.523
        623.00	     11960.449	     36.883507	     19787.733
        624.00	     11634.893	     48.308402	     19788.943
        625.00	     11354.560	     32.914715	     19790.153
        626.00	     10818.041	     38.018596	     19791.373
        627.00	     10547.171	     52.176103	     19792.573
        628.00	     10329.586	     61.214502	     19793.783
        629.00	     9985.3665	     30.460465	     19794.993
        630.00	     9666.0988	     28.806095	     19796.203
        631.00	     9441.9658	     38.661630	     19797.413
        632.00	     9057.4462	     30.697588	     19798.623
        633.00	     8703.5510	     46.072192	     19799.833
        634.00	     8480.1394	     40.604931	     19801.043
        635.00	     8192.0610	     30.136379	     19802.253
        636.00	     7880.4325	     48.218860	     19803.463
        637.00	     7653.6186	     43.016358	     19804.673
        638.00	     7344.1273	     32.721779	     19805.883
        639.00	     7144.9065	     58.249763	     19807.094
        640.00	     6880.5362	     55.327406	     19808.304
        641.00	     6638.8334	     28.924063	     19809.513
        642.00	     6414.7125	     36.997183	     19810.723
        643.00	     6199.1790	     27.002309	     19811.973
        644.00	     6028.8694	     25.004415	     19813.143
        645.00	     5763.5131	     34.736090	     19814.353
        646.00	     5629.2491	     19.422686	     19815.563
        647.00	     5319.1316	     28.489310	     19816.773
        648.00	     5227.9559	     13.249302	     19817.983
        649.00	     5057.0611	     27.896070	     19819.193
        650.00	     4854.0287	     26.678360	     19820.403
        651.00	     4638.7421	     41.890413	     19821.613
        652.00	     4547.4207	     33.339982	     19822.823
        653.00	     4376.9921	     21.437782	     19824.033
        654.00	     4221.4683	     18.532941	     19825.243
        655.00	     4004.8003	     18.808653	     19826.453
        656.00	     3897.8897	     25.578181	     19827.663
        657.00	     3777.3344	     18.630079	     19828.873
        658.00	     3628.2597	     26.347017	     19830.083
        659.00	     3482.8140	     22.131816	     19831.293
        660.00	     3399.0601	     30.154250	     19832.503
        661.00	     3226.0431	     36.294859	     19833.713
        662.00	     3151.9051	     27.371209	     19834.923
        663.00	     3064.2876	     33.988424	     19836.133
        664.00	     3011.1106	     20.820868	     19837.343
        665.00	     2774.8530	     26.279371	     19838.553
        666.00	     2721.1906	     31.473241	     19839.773
        667.00	     2643.5034	     31.460734	     19840.973
        668.00	     2554.0668	     25.967394	     19842.183
        669.00	     2467.4854	     21.165274	     19843.393
        670.00	     2424.5109	     32.188054	     19844.613
        671.00	     2287.3576	     43.224224	     19845.813
        672.00	     2293.0732	     32.595561	     19847.023
        673.00	     2237.1166	     25.532601	     19848.233
        674.00	     2154.4325	     27.875282	     19849.443
        675.00	     2092.1276	     31.781255	     19850.653
        676.00	     2033.0329	     27.117447	     19851.863
        677.00	     1974.8210	     25.601413	     19853.073
        678.00	     1928.3834	     23.819654	     19854.283
        679.00	     1883.9756	     24.818754	     19855.493
        680.00	     1804.8355	     18.196488	     19856.703
        681.00	     1756.7715	     17.012214	     19857.913
        682.00	     1732.1295	     37.977754	     19859.123
        683.00	     1686.4908	     21.446656	     19860.333
        684.00	     1606.3589	     39.786992	     19861.543
        685.00	     1598.4222	     29.686689	     19862.753
        686.00	     1504.7974	     21.555072	     19863.963
        687.00	     1472.5424	     20.973404	     19865.173
        688.00	     1465.3409	     22.246063	     19866.383
        689.00	     1423.0209	     21.139671	     19867.593
        690.00	     1399.8665	     29.274334	     19868.803
        691.00	     1377.8193	     24.981556	     19870.013
        692.00	     1333.9766	     22.611683	     19871.223
        693.00	     1339.3529	     30.256765	     19872.433
        694.00	     1217.4643	     22.052771	     19873.643
        695.00	     1286.5186	     26.172794	     19878.263
        696.00	     1250.6197	     17.740079	     19879.473
        697.00	     1234.1525	     28.695643	     19880.683
        698.00	     1126.8816	     21.087144	     19881.893
        699.00	     1136.4354	     26.190883	     19883.103
        700.00	     1127.9102	     24.979514	     19884.313
        701.00	     1010.3556	     27.005400	     19885.523
        702.00	     1045.7912	     29.303394	     19886.743
        703.00	     1062.2185	     27.442260	     19887.943
        704.00	     1017.0258	     17.912678	     19889.153
        705.00	     973.76557	     27.997267	     19890.363
        706.00	     990.36212	     26.013527	     19891.573
        707.00	     896.68978	     18.065779	     19892.783
        708.00	     968.99828	     23.933840	     19893.993
        709.00	     901.92776	     25.971130	     19895.203
        710.00	     879.27964	     27.646091	     19896.413
        711.00	     821.42886	     28.462539	     19897.622
        712.00	     797.26036	     17.117005	     19898.833
        713.00	     778.51446	     21.650010	     19900.042
        714.00	     832.48733	     30.029872	     19901.253
        715.00	     780.03606	     22.689057	     19902.463
        716.00	     781.22759	     32.968994	     19903.673
        717.00	     738.30333	     31.652231	     19904.883
        718.00	     725.71819	     28.863874	     19906.093
        719.00	     700.22338	     22.474432	     19907.303
        720.00	     677.54962	     28.138799	     19908.513
        721.00	     705.95270	     28.197684	     19909.722
        722.00	     721.72405	     30.716110	     19910.933
        723.00	     665.45483	     23.471315	     19912.142
        724.00	     655.57581	     27.904483	     19913.363
        725.00	     573.89352	     23.793108	     19914.562
        726.00	     590.48458	     22.151701	     19915.772
        727.00	     552.59631	     15.330508	     19916.982
        728.00	     598.29143	     29.763173	     19918.193
        729.00	     534.59863	     26.773516	     19919.403
        730.00	     520.34966	     32.508039	     19920.622
        731.00	     554.45687	     38.311205	     19921.823
        732.00	     535.63674	     21.606047	     19923.032
        733.00	     543.88710	     32.666601	     19924.242
        734.00	     517.53473	     23.618816	     19925.492
        735.00	     510.01777	     25.067199	     19926.662
        736.00	     542.46891	     29.622322	     19927.872
        737.00	     513.87437	     18.429767	     19929.082
        738.00	     504.65540	     25.173538	     19930.292
        739.00	     476.86028	     26.539453	     19931.502
        740.00	     450.87263	     25.551706	     19932.712
        741.00	     441.98937	     41.019882	     19933.932
        742.00	     410.40039	     24.958546	     19935.132
        743.00	     478.16158	     46.193354	     19936.342
        744.00	     449.83271	     23.685108	     19937.553
        745.00	     439.21422	     30.289697	     19938.762
        746.00	     464.28784	     33.412404	     19939.972
        747.00	     431.47102	     24.290704	     19941.182
        748.00	     409.75333	     30.481108	     19942.402
        749.00	     422.03596	     37.331830	     19943.603
        750.00	     387.01055	     25.700334	     19944.812
        751.00	     439.64470	     32.592884	     19946.022
        752.00	     407.07215	     32.745397	     19947.232
        753.00	     409.31111	     32.142298	     19948.442
        754.00	     414.69651	     29.618472	     19949.652
        755.00	     424.61157	     37.908356	     19950.862
        756.00	     411.81339	     30.831617	     19952.072
        757.00	     391.82900	     32.669968	     19953.282
        758.00	     439.50867	     45.790823	     19954.502
        759.00	     355.39951	     30.889068	     19955.702
        760.00	     396.86293	     33.506480	     19956.912
        761.00	     330.52708	     49.473924	     19958.122
        762.00	     342.45626	     40.619100	     19959.332
        763.00	     308.20054	     34.053613	     19960.542
        764.00	     332.87957	     29.420136	     19961.752
        765.00	     288.64878	     41.588273	     19962.963
        766.00	     362.14995	     40.710984	     19964.172
        767.00	     271.14779	     56.398281	     19965.382
        768.00	     348.85550	     34.762238	     19966.591
        769.00	     305.35874	     61.952218	     19967.802
        770.00	     277.38418	     39.103300	     19969.012
        771.00	     270.61744	     53.790906	     19970.222
        772.00	     318.54984	     53.728560	     19971.432
        773.00	     253.41688	     39.147314	     19972.642
        774.00	     193.03277	     39.999690	     19973.852
        775.00	     306.08257	     32.113386	     19975.062
        776.00	     332.76865	     59.008072	     19976.272
        777.00	     339.78787	     42.044074	     19977.482
        778.00	     356.62825	     45.845042	     19978.693
        779.00	     270.00656	     52.397606	     19979.902
        780.00	     244.49190	     42.397440	     19981.113
        781.00	     325.70988	     58.852571	     19982.322
        782.00	     188.18791	     40.663308	     19983.532
        783.00	     281.66477	     30.766916	     19984.782
        784.00	     420.87984	     55.227313	     19985.962
        785.00	     324.14860	     39.183787	     19987.162
        786.00	     270.71008	     43.743549	     19988.372
        787.00	     250.63384	     40.087229	     19989.582
        788.00	     222.34556	     44.643698	     19990.792
        789.00	     339.78342	     67.328621	     19992.002
        790.00	     284.29053	     58.241871	     19993.213
        791.00	     275.29922	     44.541283	     19994.422
        792.00	     301.33557	     19.056683	     19995.632
        793.00	     323.80686	     62.968042	     19996.842
        794.00	     320.80000	     39.123735	     19998.062
        795.00	     195.39327	     49.105763	     19999.262
        796.00	     263.00625	     36.435342	     20000.482
        797.00	     160.98780	     28.004649	     20001.682
        798.00	     228.84413	     42.216995	     20002.892
        799.00	     126.15146	     47.123024	     20004.102
        800.00	     223.01465	     58.623381	     20005.312
