Title=200311_em_0,1MNaOH_2,0uM_AT488
Comment=
Signature=ISS_Experiment_Ver_1_0
Timestamp=Wed Mar 11 19:24:36 2020
Product=Vinci2
SoftwareVersion=BETA.2.4
BuildNumber=234
RealTimeStart=30507.1477825

AcquisitionType=Photon Counting
AcquisitionFormat=L
AcquisitionSide=Right
Detector Gains=(0.0, 0.0)

Measurable=Intensity
MaxIterations=10

RightEmissionWavelengthBandwidth=8.0
ExcitationWavelengthBandwidth=8.0
Visualization=Y:Intensity,X:EmissionWavelength,PlotType:2D


EmissionWavelength=type:numeric,unit:nm,from:400.0,to:800.0,step:1.0
ExcitationWavelength=type:numeric,unit:nm,fixed:489.0

Space=EmissionWavelength
Columns=EmissionWavelength,Intensity,IntensityStdError,RealTime
[Data]
        400.00	     5.9477523	     1.9741670	     30516.440
        401.00	     6.7332097	     1.8292199	     30517.920
        402.00	     5.8018233	     1.4748236	     30519.130
        403.00	     5.2107762	     1.8907612	     30520.341
        404.00	     6.8003925	     1.5663160	     30521.550
        405.00	     8.3880378	     1.1243807	     30522.760
        406.00	     7.2280210	     1.2655320	     30523.970
        407.00	     6.9920768	     1.5322377	     30525.180
        408.00	     5.7361928	     1.4184285	     30526.400
        409.00	     7.5451959	     1.2999726	     30527.600
        410.00	     7.6586437	    0.91262075	     30528.810
        411.00	     7.4332212	     1.6131115	     30530.020
        412.00	     8.6846506	     1.2216885	     30531.230
        413.00	     7.2131359	     1.2515581	     30532.450
        414.00	     6.7624513	    0.85913515	     30533.650
        415.00	     7.0010460	     1.3659432	     30534.860
        416.00	     7.8050224	     1.8427939	     30536.071
        417.00	     7.2420404	     1.3016261	     30537.280
        418.00	     6.7978340	     1.3148270	     30538.490
        419.00	     8.4056201	     1.0467226	     30539.700
        420.00	     6.0191542	     1.1244454	     30540.910
        421.00	     10.861465	     1.7034063	     30542.120
        422.00	     7.7772203	     1.3416745	     30543.330
        423.00	     9.0472461	     1.6816526	     30544.540
        424.00	     9.9723619	     1.5185044	     30545.750
        425.00	     9.0900184	     1.3904635	     30546.960
        426.00	     8.5249260	     1.0331136	     30548.180
        427.00	     8.9070674	     1.3566030	     30549.380
        428.00	     10.205077	    0.83646912	     30550.590
        429.00	     7.7755070	     2.1333174	     30551.800
        430.00	     8.3955597	     1.1594625	     30553.010
        431.00	     10.663329	     2.0718944	     30554.220
        432.00	     8.3362949	     1.4348602	     30555.430
        433.00	     11.913557	     1.8886223	     30556.640
        434.00	     9.4544319	     1.4471193	     30557.850
        435.00	     10.084889	     1.3064487	     30559.060
        436.00	     11.179803	     1.8572334	     30560.270
        437.00	     12.418902	     1.6744202	     30561.480
        438.00	     12.480964	     1.7941031	     30562.690
        439.00	     10.224756	     1.5814761	     30563.900
        440.00	     9.5394129	     1.8979636	     30565.110
        441.00	     11.283793	     1.9769942	     30566.320
        442.00	     8.0283120	     1.4155082	     30567.540
        443.00	     11.266762	     1.8243787	     30568.740
        444.00	     15.747999	     1.8416297	     30569.950
        445.00	     10.715191	     1.8001482	     30571.170
        446.00	     12.880763	     1.5373395	     30572.370
        447.00	     13.684954	     1.9325730	     30573.580
        448.00	     15.403583	     2.3871784	     30574.790
        449.00	     16.367368	     1.5154970	     30576.000
        450.00	     14.921665	     1.9028036	     30577.210
        451.00	     21.952488	     1.1908586	     30578.420
        452.00	     17.225497	     1.8986621	     30579.630
        453.00	     19.709901	     1.7300698	     30580.840
        454.00	     18.793577	    0.72508011	     30582.050
        455.00	     23.676881	     1.3173778	     30583.260
        456.00	     19.773668	     1.2897577	     30584.477
        457.00	     26.549028	     2.2225624	     30585.680
        458.00	     30.257366	     1.7438779	     30586.890
        459.00	     30.132017	     1.3558782	     30588.100
        460.00	     34.069246	     2.4421833	     30589.310
        461.00	     37.594217	     2.1341801	     30590.520
        462.00	     38.409703	     1.1017421	     30591.730
        463.00	     41.780553	     1.6927141	     30592.940
        464.00	     54.496243	     1.8759265	     30594.150
        465.00	     60.225106	     1.6734695	     30595.360
        466.00	     62.682746	     2.2994372	     30596.570
        467.00	     71.905937	     2.3250157	     30597.780
        468.00	     86.955440	     2.2400439	     30598.990
        469.00	     102.33404	     3.8853306	     30600.200
        470.00	     117.97116	     3.1255841	     30601.410
        471.00	     139.68266	     3.2459107	     30602.620
        472.00	     156.63228	     3.9690570	     30603.830
        473.00	     190.70293	     4.6290108	     30605.040
        474.00	     224.97953	     2.9952140	     30606.250
        475.00	     271.48529	     2.3033725	     30607.460
        476.00	     336.12531	     3.7132434	     30608.670
        477.00	     403.07634	     4.2169162	     30609.880
        478.00	     503.86652	     2.9821486	     30611.090
        479.00	     619.85570	     5.8566202	     30612.300
        480.00	     771.61736	     5.1639833	     30613.510
        481.00	     960.92974	     8.4530298	     30614.720
        482.00	     1189.0813	     5.7518750	     30615.940
        483.00	     1488.1863	     10.232136	     30617.140
        484.00	     1860.6621	     11.411636	     30618.350
        485.00	     2334.0740	     11.276249	     30619.560
        486.00	     2956.5023	     5.7622501	     30620.770
        487.00	     3754.7002	     14.725966	     30621.980
        488.00	     4642.2379	     9.0691167	     30623.190
        489.00	     5631.4461	     17.911400	     30624.400
        490.00	     6614.5354	     15.513449	     30625.610
        491.00	     7731.4879	     30.161025	     30626.820
        492.00	     8865.6876	     14.703597	     30628.030
        493.00	     10265.982	     18.908739	     30629.240
        494.00	     11798.088	     15.716529	     30630.450
        495.00	     13587.608	     24.076818	     30631.660
        496.00	     15492.421	     27.415529	     30632.870
        497.00	     17627.478	     38.060890	     30634.090
        498.00	     19831.163	     24.172841	     30635.290
        499.00	     22142.709	     47.139980	     30636.500
        500.00	     24733.262	     50.345251	     30637.710
        501.00	     27272.243	     45.274818	     30638.920
        502.00	     29653.431	     29.112271	     30640.130
        503.00	     32180.258	     50.187294	     30641.340
        504.00	     34340.551	     66.993283	     30642.549
        505.00	     36523.371	     42.905663	     30643.760
        506.00	     38372.978	     24.210345	     30644.970
        507.00	     40319.240	     51.096965	     30646.180
        508.00	     41618.115	     62.555430	     30647.389
        509.00	     42659.457	     43.810106	     30648.600
        510.00	     43749.912	     64.414893	     30649.820
        511.00	     44349.209	     31.204845	     30651.019
        512.00	     44861.824	     59.409207	     30652.229
        513.00	     45034.863	     57.410342	     30653.440
        514.00	     44956.857	     40.972957	     30654.650
        515.00	     44766.087	     52.285087	     30655.859
        516.00	     44350.357	     61.254192	     30657.069
        517.00	     43821.899	     70.212712	     30658.279
        518.00	     43220.969	     45.941021	     30659.490
        519.00	     42460.242	     47.299601	     30660.699
        520.00	     41427.713	     43.988519	     30661.909
        521.00	     40431.283	     62.905314	     30663.119
        522.00	     39409.332	     67.903873	     30664.329
        523.00	     38422.216	     65.856163	     30665.539
        524.00	     37424.654	     64.468903	     30666.749
        525.00	     36105.857	     60.967827	     30667.959
        526.00	     34949.214	     41.473067	     30669.170
        527.00	     33912.997	     48.659184	     30670.389
        528.00	     32693.363	     68.790772	     30671.589
        529.00	     31514.559	     50.627204	     30672.799
        530.00	     30376.368	     66.759884	     30674.009
        531.00	     29260.912	     44.738285	     30675.219
        532.00	     28306.201	     32.984821	     30676.430
        533.00	     27245.113	     41.122267	     30677.639
        534.00	     26201.449	     56.753707	     30678.849
        535.00	     25330.945	     33.631935	     30680.059
        536.00	     24505.346	     51.610640	     30681.269
        537.00	     23610.322	     30.762896	     30682.479
        538.00	     22834.628	     45.293776	     30683.690
        539.00	     22068.607	     57.326917	     30684.899
        540.00	     21374.083	     29.047782	     30686.109
        541.00	     20679.767	     45.873802	     30687.319
        542.00	     20061.618	     48.273015	     30688.529
        543.00	     19522.008	     40.818031	     30689.739
        544.00	     18951.783	     18.406192	     30690.949
        545.00	     18341.421	     24.707727	     30692.159
        546.00	     17846.809	     19.671569	     30696.789
        547.00	     17360.322	     46.083683	     30697.989
        548.00	     16924.458	     20.106739	     30699.199
        549.00	     16431.318	     34.852022	     30700.409
        550.00	     15986.509	     39.948131	     30701.619
        551.00	     15515.813	     39.637789	     30702.829
        552.00	     14988.361	     31.148168	     30704.039
        553.00	     14706.095	     35.475525	     30705.249
        554.00	     14200.188	     41.881879	     30706.459
        555.00	     13818.409	     33.274664	     30707.669
        556.00	     13350.001	     37.108717	     30708.879
        557.00	     13064.506	     32.620032	     30710.089
        558.00	     12546.384	     35.123670	     30711.299
        559.00	     12218.156	     22.739005	     30712.509
        560.00	     11790.235	     37.326614	     30713.719
        561.00	     11404.031	     40.422786	     30714.929
        562.00	     11116.973	     31.962062	     30716.139
        563.00	     10617.976	     33.670091	     30717.349
        564.00	     10235.049	     27.376129	     30718.559
        565.00	     9887.3663	     33.137906	     30719.769
        566.00	     9471.1541	     38.971425	     30720.979
        567.00	     9179.4588	     19.548448	     30722.189
        568.00	     8818.1580	     26.853914	     30723.399
        569.00	     8515.6735	     27.138641	     30724.609
        570.00	     8143.8536	     33.566358	     30725.819
        571.00	     7813.8027	     22.465814	     30727.029
        572.00	     7530.3127	     16.640690	     30728.239
        573.00	     7219.5547	     19.844619	     30729.449
        574.00	     6935.4709	     17.184604	     30730.659
        575.00	     6693.2205	     22.943496	     30731.869
        576.00	     6339.2706	     14.665830	     30733.079
        577.00	     6151.8712	     28.578260	     30734.289
        578.00	     5913.2846	     18.513163	     30735.499
        579.00	     5718.9914	     22.468198	     30736.709
        580.00	     5442.2898	     22.057462	     30737.919
        581.00	     5236.3026	     18.996306	     30739.129
        582.00	     4987.6007	     21.718264	     30740.339
        583.00	     4815.4677	     19.550362	     30741.549
        584.00	     4657.3327	     17.050546	     30742.759
        585.00	     4430.5894	     14.245062	     30743.969
        586.00	     4278.2135	     28.739678	     30745.179
        587.00	     4176.7655	     20.417478	     30746.399
        588.00	     4004.6897	     16.960217	     30747.599
        589.00	     3847.6518	     24.467214	     30748.809
        590.00	     3708.1301	     24.160358	     30750.039
        591.00	     3552.9143	     27.302225	     30751.239
        592.00	     3441.0495	     16.421174	     30752.439
        593.00	     3316.7651	     18.609164	     30753.649
        594.00	     3217.5184	     29.852071	     30754.859
        595.00	     3085.2861	     18.762375	     30756.069
        596.00	     2981.4507	     19.375310	     30757.279
        597.00	     2897.3844	     18.564414	     30758.489
        598.00	     2770.0622	     17.812516	     30759.699
        599.00	     2688.3097	     14.312607	     30760.909
        600.00	     2612.4355	     17.395864	     30762.119
        601.00	     2522.6165	     18.078134	     30763.329
        602.00	     2434.0161	     21.312275	     30764.539
        603.00	     2345.7399	     13.019506	     30765.749
        604.00	     2280.1569	     13.505334	     30766.959
        605.00	     2218.1575	     21.845750	     30768.169
        606.00	     2139.5331	     9.5130191	     30769.379
        607.00	     2054.2740	     11.925239	     30770.589
        608.00	     2002.4246	     20.603689	     30771.799
        609.00	     1919.1058	     16.076933	     30773.009
        610.00	     1875.9012	     14.606656	     30774.219
        611.00	     1799.9868	     16.624863	     30775.429
        612.00	     1766.9442	     16.975019	     30776.639
        613.00	     1705.4721	     18.254565	     30777.849
        614.00	     1635.9645	     9.8307971	     30779.059
        615.00	     1593.7774	     13.905250	     30780.269
        616.00	     1491.6250	     15.357435	     30781.479
        617.00	     1481.7461	     9.3323012	     30782.699
        618.00	     1407.0309	     9.8743859	     30783.899
        619.00	     1371.9029	     15.644840	     30785.109
        620.00	     1345.5192	     12.801564	     30786.319
        621.00	     1274.9126	     21.525097	     30787.529
        622.00	     1244.6609	     20.322414	     30788.739
        623.00	     1196.4464	     16.262172	     30789.949
        624.00	     1135.7284	     11.666963	     30791.159
        625.00	     1112.6925	     15.066871	     30792.369
        626.00	     1069.8011	     13.184458	     30793.579
        627.00	     1068.3640	     17.799075	     30794.789
        628.00	     1002.8218	     9.1368503	     30795.999
        629.00	     1007.9780	     18.046566	     30797.209
        630.00	     946.68212	     10.006078	     30798.419
        631.00	     925.86649	     11.408053	     30799.629
        632.00	     912.60168	     14.091112	     30800.839
        633.00	     850.05431	     17.520608	     30802.049
        634.00	     825.70180	     12.966822	     30803.259
        635.00	     830.93077	     8.2058019	     30804.469
        636.00	     759.63615	     16.818853	     30805.679
        637.00	     755.56042	     11.926132	     30806.888
        638.00	     744.79404	     19.038189	     30808.099
        639.00	     702.81921	     9.3116982	     30809.308
        640.00	     701.20245	     12.298201	     30810.519
        641.00	     645.88944	     7.1998520	     30811.728
        642.00	     636.03335	     10.841875	     30812.938
        643.00	     626.97295	     12.033791	     30814.149
        644.00	     603.88947	     14.754411	     30815.358
        645.00	     593.03309	     13.216617	     30816.569
        646.00	     575.13137	     10.474371	     30817.778
        647.00	     575.39276	     16.730362	     30818.988
        648.00	     529.52384	     15.535176	     30820.198
        649.00	     527.80927	     13.442589	     30821.408
        650.00	     489.39772	     13.537904	     30822.619
        651.00	     488.18915	     8.1094141	     30823.828
        652.00	     467.23110	     11.010716	     30825.039
        653.00	     444.90368	     10.513719	     30826.248
        654.00	     453.75062	     16.840501	     30827.458
        655.00	     430.17614	     13.207781	     30828.668
        656.00	     416.11872	     14.387504	     30829.888
        657.00	     394.30260	     12.651516	     30831.088
        658.00	     399.18394	     12.812522	     30832.298
        659.00	     392.77480	     7.5281522	     30833.508
        660.00	     374.79521	     16.079673	     30834.718
        661.00	     387.76897	     8.0301734	     30835.928
        662.00	     359.97108	     14.057840	     30837.138
        663.00	     355.02165	     10.785780	     30838.348
        664.00	     327.13196	     8.3162380	     30839.559
        665.00	     330.57454	     12.188470	     30840.769
        666.00	     325.05491	     5.8375090	     30841.978
        667.00	     310.61018	     13.279009	     30843.188
        668.00	     289.27771	     10.852384	     30844.398
        669.00	     277.13135	     10.266117	     30845.608
        670.00	     288.90344	     14.622177	     30846.818
        671.00	     281.12253	     12.316889	     30848.028
        672.00	     281.36935	     11.162033	     30849.238
        673.00	     266.45358	     10.988329	     30850.448
        674.00	     280.19699	     10.909879	     30851.658
        675.00	     241.31015	     13.298491	     30852.868
        676.00	     261.34678	     9.2826281	     30854.078
        677.00	     246.72474	     14.448514	     30855.288
        678.00	     236.48516	     13.489846	     30856.498
        679.00	     250.62302	     11.445888	     30857.708
        680.00	     236.14836	     15.996855	     30858.918
        681.00	     224.77698	     12.596568	     30860.128
        682.00	     201.45739	     13.773295	     30861.338
        683.00	     202.63242	     13.688028	     30862.548
        684.00	     195.92969	     11.270542	     30863.758
        685.00	     186.69387	     10.996476	     30864.968
        686.00	     205.71274	     14.725632	     30866.178
        687.00	     189.96725	     13.148278	     30867.388
        688.00	     195.05771	     11.586072	     30868.598
        689.00	     199.85791	     14.534328	     30869.808
        690.00	     179.22095	     11.576183	     30871.018
        691.00	     177.84409	     11.632844	     30872.228
        692.00	     174.04326	     19.923711	     30873.438
        693.00	     181.04624	     16.602869	     30874.648
        694.00	     176.37398	     9.2725434	     30875.858
        695.00	     186.91478	     16.397578	     30880.478
        696.00	     163.69605	     16.401751	     30881.688
        697.00	     162.60637	     25.796932	     30882.898
        698.00	     152.24344	     6.7406280	     30884.108
        699.00	     157.02781	     13.785869	     30885.318
        700.00	     139.03101	     11.811163	     30886.528
        701.00	     143.56784	     10.158127	     30887.738
        702.00	     140.64601	     19.307273	     30888.948
        703.00	     142.68607	     17.196146	     30890.159
        704.00	     134.97170	     18.532607	     30891.369
        705.00	     139.59213	     13.978506	     30892.578
        706.00	     133.68307	     10.665343	     30893.788
        707.00	     114.43112	     18.975955	     30894.998
        708.00	     121.63500	     12.576591	     30896.208
        709.00	     128.96518	     9.8822261	     30897.418
        710.00	     108.50804	     16.725314	     30898.628
        711.00	     140.03569	     9.9052542	     30899.838
        712.00	     114.63686	     15.437970	     30901.048
        713.00	     116.36681	     20.892683	     30902.258
        714.00	     125.87232	     19.279265	     30903.468
        715.00	     115.44896	     17.622444	     30904.678
        716.00	     126.42018	     20.430753	     30905.888
        717.00	     97.358681	     19.292036	     30907.098
        718.00	     136.84429	     14.782562	     30908.308
        719.00	     65.002354	     17.625374	     30909.518
        720.00	     137.72926	     20.812921	     30910.728
        721.00	     98.620861	     28.050664	     30911.938
        722.00	     110.23062	     21.356849	     30913.148
        723.00	     125.49945	     21.025850	     30914.358
        724.00	     101.49954	     19.526264	     30915.568
        725.00	     126.00245	     20.112534	     30916.778
        726.00	     111.58764	     16.605085	     30917.988
        727.00	     73.388860	     20.800248	     30919.198
        728.00	     83.782945	     16.333267	     30920.418
        729.00	     60.520599	     20.613049	     30921.618
        730.00	     95.644140	     35.671398	     30922.838
        731.00	     77.724003	     21.841453	     30924.038
        732.00	     92.593659	     20.185678	     30925.248
        733.00	     92.036330	     19.879446	     30926.458
        734.00	     65.194888	     20.954253	     30927.668
        735.00	     129.23712	     31.586691	     30928.878
        736.00	     108.41103	     34.177091	     30930.088
        737.00	     76.284775	     17.168553	     30931.298
        738.00	     109.35619	     25.658355	     30932.508
        739.00	     35.354921	     29.488713	     30933.718
        740.00	     64.285429	     39.981129	     30934.928
        741.00	     67.452194	     24.079872	     30936.138
        742.00	     52.707843	     33.920296	     30937.348
        743.00	     46.627611	     22.601282	     30938.558
        744.00	     49.569619	     43.738654	     30939.768
        745.00	     139.36605	     23.054685	     30940.978
        746.00	     43.764837	     24.769153	     30942.188
        747.00	     65.972689	     32.906086	     30943.398
        748.00	     91.110431	     27.906167	     30944.608
        749.00	     104.52292	     28.889077	     30945.818
        750.00	     70.818940	     23.451270	     30947.028
        751.00	     61.580544	     19.621486	     30948.238
        752.00	     75.175385	     26.256702	     30949.448
        753.00	     52.780952	     32.498998	     30950.658
        754.00	     105.90227	     41.539079	     30951.868
        755.00	     146.83821	     40.918689	     30953.078
        756.00	     62.901001	     40.874880	     30954.288
        757.00	     74.452945	     26.266854	     30955.498
        758.00	     86.687012	     37.595105	     30956.708
        759.00	     62.586078	     39.688655	     30957.918
        760.00	     60.576796	     29.371975	     30959.128
        761.00	     130.25980	     44.705301	     30960.338
        762.00	     4.0561656	     43.715693	     30961.548
        763.00	     130.07703	     32.740067	     30962.758
        764.00	     93.158811	     31.723473	     30963.967
        765.00	     64.210850	     27.735536	     30965.178
        766.00	     61.978683	     42.486138	     30966.388
        767.00	     25.823599	     43.427956	     30967.598
        768.00	     26.117524	     28.117090	     30968.807
        769.00	    -23.875786	     24.244053	     30970.017
        770.00	     166.68499	     20.560699	     30971.227
        771.00	     120.20300	     33.554976	     30972.437
        772.00	     72.663101	     50.671157	     30973.648
        773.00	     43.986868	     37.602951	     30974.867
        774.00	     14.593543	     44.826798	     30976.068
        775.00	     31.547984	     35.182010	     30977.277
        776.00	     45.408349	     42.878704	     30978.488
        777.00	     8.2206743	     34.555938	     30979.697
        778.00	     125.78748	     47.270025	     30980.917
        779.00	     43.368929	     36.046633	     30982.117
        780.00	     36.744448	     42.788208	     30983.328
        781.00	     119.28410	     31.066219	     30984.537
        782.00	     55.519039	     50.199303	     30985.747
        783.00	     151.04821	     52.857906	     30986.957
        784.00	     115.72353	     40.166095	     30988.167
        785.00	     64.681028	     55.150398	     30989.377
        786.00	     87.737062	     63.001125	     30990.588
        787.00	     35.588490	     35.895063	     30991.797
        788.00	     70.294816	     41.382448	     30993.018
        789.00	     63.179684	     39.870425	     30994.217
        790.00	     32.623504	     53.939252	     30995.427
        791.00	     87.844766	     50.560623	     30996.638
        792.00	     37.172629	     50.522528	     30997.847
        793.00	     45.460569	     40.948865	     30999.057
        794.00	    -74.400000	     30.666667	     31000.267
        795.00	     128.67362	     51.882256	     31001.478
        796.00	     44.617132	     54.246665	     31002.687
        797.00	     54.934227	     53.104645	     31003.898
        798.00	     1.4716664	     35.544121	     31005.107
        799.00	     40.855870	     53.544926	     31006.317
        800.00	     100.21545	     45.797806	     31007.527
