Title=200311_em_NaOH-EtOH_2,0uM_AT532
Comment=
Signature=ISS_Experiment_Ver_1_0
Timestamp=Wed Mar 11 15:07:55 2020
Product=Vinci2
SoftwareVersion=BETA.2.4
BuildNumber=234
RealTimeStart=15106.7732904

AcquisitionType=Photon Counting
AcquisitionFormat=L
AcquisitionSide=Right
Detector Gains=(0.0, 0.0)

Measurable=Intensity
MaxIterations=10

RightEmissionWavelengthBandwidth=8.0
ExcitationWavelengthBandwidth=8.0
Visualization=Y:Intensity,X:EmissionWavelength,PlotType:2D


EmissionWavelength=type:numeric,unit:nm,from:400.0,to:800.0,step:1.0
ExcitationWavelength=type:numeric,unit:nm,fixed:504.0

Space=EmissionWavelength
Columns=EmissionWavelength,Intensity,IntensityStdError,RealTime
[Data]
        400.00	     5.2330999	     1.3136788	     15115.695
        401.00	     4.8718104	     1.1387527	     15117.175
        402.00	     4.1736436	     2.0296319	     15118.385
        403.00	     5.8735504	     1.6092942	     15119.594
        404.00	     6.8916729	     1.3306296	     15120.805
        405.00	     4.9462071	     1.1403120	     15122.015
        406.00	     6.6370507	     1.6143547	     15123.225
        407.00	     6.6288520	     1.4536083	     15124.435
        408.00	     3.5596137	     1.6142969	     15125.645
        409.00	     2.9908885	     1.2638166	     15126.855
        410.00	     5.0302334	     1.3803434	     15128.065
        411.00	     3.5579748	     1.2209844	     15129.275
        412.00	     5.8275593	     1.7173640	     15130.485
        413.00	     3.5612023	     1.3967287	     15131.695
        414.00	     2.3146645	    0.98915576	     15132.905
        415.00	     2.8867950	     1.3706633	     15134.125
        416.00	     2.5485787	    0.88456191	     15135.325
        417.00	     3.1199985	     1.1189031	     15136.535
        418.00	     6.0906767	     1.6224003	     15137.745
        419.00	    0.84513029	     1.1350672	     15138.955
        420.00	     1.9911270	     1.0714378	     15140.165
        421.00	     2.8014773	     1.4093078	     15141.375
        422.00	     1.1964954	     1.3083771	     15142.585
        423.00	     2.8085599	     1.7397392	     15143.795
        424.00	     3.3855363	     1.5262470	     15145.005
        425.00	     3.4000832	     1.6177099	     15146.215
        426.00	     3.8686485	     1.4032755	     15147.425
        427.00	     4.5814420	    0.88471537	     15148.635
        428.00	     3.7744805	    0.74086932	     15149.845
        429.00	     2.0314388	     1.6914112	     15151.055
        430.00	     2.8610566	    0.87047482	     15152.265
        431.00	     5.6965246	     1.2988190	     15153.475
        432.00	     4.8884222	     2.2558738	     15154.695
        433.00	     2.0605953	    0.87292441	     15155.894
        434.00	     2.5417694	     1.3856998	     15157.105
        435.00	     3.2662642	     1.8161375	     15158.315
        436.00	     3.5116047	     1.0690664	     15159.525
        437.00	     2.9249152	     1.0986594	     15160.735
        438.00	     5.1080394	     1.7150609	     15161.945
        439.00	     1.8612439	    0.96098687	     15163.155
        440.00	     1.0194792	     1.5855263	     15164.364
        441.00	     1.7547151	     1.6125046	     15165.575
        442.00	     2.8637576	     1.2513937	     15166.795
        443.00	    0.54119817	    0.91311027	     15167.994
        444.00	     6.3436299	     1.7766132	     15169.205
        445.00	     1.6580087	     1.5215626	     15170.414
        446.00	     3.0336931	     1.6136531	     15171.625
        447.00	     2.5471994	     1.6354421	     15172.834
        448.00	     5.0758952	     2.2018060	     15174.045
        449.00	     5.6073389	     1.0103313	     15175.255
        450.00	     3.8573011	     1.7964162	     15176.464
        451.00	     6.4102282	     1.3433481	     15177.674
        452.00	     5.8100860	     1.9215269	     15178.894
        453.00	     3.0026803	     1.6571519	     15180.094
        454.00	     5.3437781	     1.6580211	     15181.305
        455.00	     3.9418247	     2.0106251	     15182.515
        456.00	     2.6608366	     1.8260644	     15183.734
        457.00	     3.4594982	     1.4221351	     15184.934
        458.00	     3.8744188	     1.0404457	     15186.144
        459.00	     5.3485654	     1.4121625	     15187.354
        460.00	     4.8328938	     1.3569022	     15188.564
        461.00	     3.2574535	     1.4323430	     15189.774
        462.00	     5.2988175	     2.0252703	     15190.984
        463.00	     8.9606871	     1.4919296	     15192.194
        464.00	     6.4320765	     1.8030740	     15193.404
        465.00	     9.4862060	     1.4270735	     15194.624
        466.00	     3.4869508	     1.3644001	     15195.824
        467.00	     8.0508180	     2.4384971	     15197.034
        468.00	     8.7982363	     1.9301208	     15198.244
        469.00	     10.364351	     1.5923979	     15199.454
        470.00	     10.683970	     2.2355375	     15200.664
        471.00	     13.593184	     1.6417341	     15201.874
        472.00	     12.807126	     1.6386086	     15203.084
        473.00	     10.306728	     1.7653427	     15204.294
        474.00	     12.368435	     1.6803145	     15205.544
        475.00	     11.726044	     2.3053737	     15206.714
        476.00	     9.3239446	     1.5230783	     15207.924
        477.00	     7.1894754	     1.3382626	     15209.134
        478.00	     6.6371323	     1.2975571	     15210.344
        479.00	     8.1440036	     1.7178407	     15211.554
        480.00	     3.1666114	     1.4337984	     15212.764
        481.00	     10.032633	     1.1411996	     15213.974
        482.00	     8.4499896	     1.8006425	     15215.184
        483.00	     12.270158	     1.5928964	     15216.394
        484.00	     8.3992536	     1.3265367	     15217.604
        485.00	     11.957409	     2.0054164	     15218.814
        486.00	     12.635280	     1.5368116	     15220.024
        487.00	     16.085233	     2.3287194	     15221.234
        488.00	     10.152703	     1.0206045	     15222.445
        489.00	     9.1198520	     2.0267645	     15223.654
        490.00	     11.205332	     2.0562196	     15224.864
        491.00	     12.067222	     1.5618309	     15226.074
        492.00	     14.339767	     2.5708464	     15227.284
        493.00	     15.550744	     2.4207570	     15228.494
        494.00	     15.150322	     1.6540840	     15229.704
        495.00	     16.661710	     2.4969231	     15230.914
        496.00	     14.136720	     2.6131086	     15232.124
        497.00	     19.195384	     1.9261437	     15233.334
        498.00	     38.322823	     1.9555276	     15234.544
        499.00	     142.27948	     3.6175283	     15235.754
        500.00	     518.57120	     4.3824052	     15236.964
        501.00	     1331.0787	     8.6735312	     15238.174
        502.00	     2743.0600	     9.0427372	     15239.384
        503.00	     4376.2132	     17.905792	     15240.594
        504.00	     5810.1558	     13.957050	     15241.804
        505.00	     6290.6384	     19.815464	     15243.014
        506.00	     5656.4707	     13.259037	     15244.224
        507.00	     4152.5985	     24.168150	     15245.434
        508.00	     2467.4567	     8.5346989	     15246.644
        509.00	     1142.3160	     11.509953	     15247.854
        510.00	     419.34262	     4.5488600	     15249.064
        511.00	     123.64270	     2.7435762	     15250.274
        512.00	     56.480631	     3.4620586	     15251.484
        513.00	     49.110900	     2.4751063	     15252.694
        514.00	     59.686944	     1.5841151	     15253.904
        515.00	     63.346593	     5.2877849	     15255.114
        516.00	     63.926254	     2.5593786	     15256.324
        517.00	     67.531059	     3.5458651	     15257.534
        518.00	     78.108976	     3.7545828	     15258.744
        519.00	     78.874425	     3.0276832	     15259.954
        520.00	     76.485583	     3.5584695	     15261.164
        521.00	     88.074099	     3.1088157	     15262.374
        522.00	     89.579734	     5.9472495	     15263.584
        523.00	     97.460250	     5.4260582	     15264.794
        524.00	     92.376767	     2.4137976	     15266.004
        525.00	     100.49575	     2.7014610	     15267.214
        526.00	     105.62144	     2.4336968	     15268.424
        527.00	     101.28261	     4.6371515	     15269.634
        528.00	     102.60413	     5.6654758	     15270.844
        529.00	     101.50932	     3.5212627	     15272.054
        530.00	     101.20522	     2.0835975	     15273.264
        531.00	     108.31732	     2.2204652	     15274.474
        532.00	     103.79503	     3.0092792	     15275.684
        533.00	     107.49186	     3.7467143	     15276.894
        534.00	     103.31544	     2.8242148	     15278.104
        535.00	     102.08540	     4.3838261	     15279.314
        536.00	     98.832542	     4.3788213	     15280.524
        537.00	     95.749545	     2.0805118	     15281.734
        538.00	     97.907531	     3.3549910	     15282.944
        539.00	     93.731218	     4.7378856	     15284.154
        540.00	     93.622531	     3.2811358	     15285.364
        541.00	     90.799826	     5.3634358	     15286.574
        542.00	     87.378110	     3.3462312	     15287.784
        543.00	     86.993544	     3.5037373	     15288.994
        544.00	     87.993391	     2.7292874	     15290.204
        545.00	     82.292863	     3.0284240	     15291.414
        546.00	     85.265414	     3.2029471	     15296.034
        547.00	     74.677197	     3.0293554	     15297.244
        548.00	     81.884556	     3.6596907	     15298.454
        549.00	     76.639534	     3.1588760	     15299.664
        550.00	     68.783588	     2.7805674	     15300.874
        551.00	     70.984881	     2.6352684	     15302.084
        552.00	     71.466455	     3.5207559	     15303.294
        553.00	     71.079592	     4.4700628	     15304.504
        554.00	     67.335537	     3.7003991	     15305.714
        555.00	     66.210082	     3.3392271	     15306.924
        556.00	     57.015470	     3.1279461	     15308.134
        557.00	     60.321009	     2.4774580	     15309.344
        558.00	     59.084101	     4.0342232	     15310.554
        559.00	     58.128445	     4.0486199	     15311.764
        560.00	     62.372446	     3.8632126	     15312.974
        561.00	     56.010403	     2.9995954	     15314.184
        562.00	     55.471067	     3.9067452	     15315.394
        563.00	     56.616107	     2.2206021	     15316.604
        564.00	     61.834431	     4.5699412	     15317.814
        565.00	     61.288244	     3.7340990	     15319.024
        566.00	     55.504086	     3.0347542	     15320.233
        567.00	     53.583385	     3.0016251	     15321.444
        568.00	     55.301634	     3.2441004	     15322.654
        569.00	     55.571453	     4.2351277	     15323.863
        570.00	     47.004856	     2.8142543	     15325.073
        571.00	     56.386413	     4.9368967	     15326.284
        572.00	     51.513201	     3.1995777	     15327.494
        573.00	     46.570140	     5.9694479	     15328.704
        574.00	     52.034847	     4.5022758	     15329.913
        575.00	     39.977646	     5.7970608	     15331.133
        576.00	     44.623377	     3.2924318	     15332.334
        577.00	     48.605953	     5.1021876	     15333.543
        578.00	     43.403538	     5.3258292	     15334.753
        579.00	     41.804173	     3.1199227	     15335.964
        580.00	     43.336953	     4.3998784	     15337.173
        581.00	     43.673158	     3.5389988	     15338.383
        582.00	     35.298893	     3.5626270	     15339.593
        583.00	     35.013321	     4.3736961	     15340.803
        584.00	     44.692822	     4.7641388	     15342.013
        585.00	     40.895745	     3.9220648	     15343.224
        586.00	     43.330027	     5.1533821	     15344.434
        587.00	     37.944901	     3.8881326	     15345.643
        588.00	     34.256569	     2.9512980	     15346.853
        589.00	     40.053630	     5.0266854	     15348.063
        590.00	     40.967696	     6.4970007	     15349.273
        591.00	     36.921762	     5.2199379	     15350.483
        592.00	     32.583091	     3.2646588	     15351.694
        593.00	     38.752842	     3.4393607	     15352.914
        594.00	     28.911825	     4.0099657	     15354.113
        595.00	     35.213303	     3.2113368	     15355.323
        596.00	     31.341604	     2.9317043	     15356.533
        597.00	     27.400742	     2.9127058	     15357.743
        598.00	     27.925468	     4.3207386	     15358.953
        599.00	     29.148912	     2.6553427	     15360.163
        600.00	     22.394018	     4.8976711	     15361.373
        601.00	     22.910278	     7.5788774	     15362.583
        602.00	     26.523056	     2.7251073	     15363.794
        603.00	     14.431324	     4.5152723	     15365.003
        604.00	     20.417050	     3.9086696	     15366.214
        605.00	     22.361302	     4.5279894	     15367.423
        606.00	     31.009764	     3.6330411	     15368.634
        607.00	     20.285973	     4.4295756	     15369.843
        608.00	     22.247573	     5.8517989	     15371.053
        609.00	     17.060646	     3.4585640	     15372.263
        610.00	     14.681728	     4.5043446	     15373.473
        611.00	     24.769446	     4.3334716	     15374.723
        612.00	     16.450886	     3.0414662	     15375.893
        613.00	     21.513983	     4.0509212	     15377.103
        614.00	     23.222394	     4.0789745	     15378.323
        615.00	     20.011349	     4.2554979	     15379.523
        616.00	     19.834615	     5.7749409	     15380.733
        617.00	     13.380080	     6.1735119	     15381.943
        618.00	     21.851256	     7.6985841	     15383.153
        619.00	     17.671536	     4.7324748	     15384.363
        620.00	     25.976524	     4.9756957	     15385.573
        621.00	     16.036636	     3.8473571	     15386.783
        622.00	     19.515012	     4.0976202	     15387.993
        623.00	     20.579347	     6.5634188	     15389.203
        624.00	     15.309960	     3.8478875	     15390.413
        625.00	     18.470765	     5.5124628	     15391.623
        626.00	     28.644569	     4.4805023	     15392.834
        627.00	     14.540332	     6.3231196	     15394.044
        628.00	     17.337309	     6.8453985	     15395.253
        629.00	     13.090624	     7.6139248	     15396.463
        630.00	     17.778068	     6.2623290	     15397.673
        631.00	     15.695764	     7.2419584	     15398.883
        632.00	     13.565450	     5.5316593	     15400.093
        633.00	     11.858596	     3.0738106	     15401.303
        634.00	     17.720149	     7.3521705	     15402.513
        635.00	     11.647663	     3.2918740	     15403.733
        636.00	     7.9016988	     5.8282177	     15404.933
        637.00	   0.098804815	     5.6303334	     15406.143
        638.00	     14.101781	     6.0123221	     15407.353
        639.00	     10.232772	     6.3831757	     15408.563
        640.00	     3.6894604	     7.6081652	     15409.773
        641.00	     15.168065	     4.8852029	     15410.983
        642.00	     8.5197125	     3.0615305	     15412.193
        643.00	     15.003935	     4.3478249	     15413.403
        644.00	     17.894618	     3.4838305	     15414.613
        645.00	     12.118312	     8.0740377	     15415.823
        646.00	     11.730599	     4.1242795	     15417.033
        647.00	     23.657029	     8.4171975	     15418.244
        648.00	     10.892284	     5.3352282	     15419.453
        649.00	     15.631982	     7.9541269	     15420.663
        650.00	     8.8515532	     7.9657319	     15421.873
        651.00	     10.751503	     9.2800611	     15423.083
        652.00	     5.5081062	     7.0162081	     15424.293
        653.00	     4.9811718	     9.4563653	     15425.503
        654.00	     11.199161	     11.085585	     15426.713
        655.00	     5.1092763	     5.4989946	     15427.923
        656.00	     12.766704	     10.883798	     15429.133
        657.00	     5.2539509	     7.8791608	     15430.343
        658.00	     7.2767905	     5.7299339	     15431.563
        659.00	     6.0589004	     8.8792520	     15432.763
        660.00	     10.147644	     6.2310094	     15433.973
        661.00	     7.5741411	     6.6106374	     15435.183
        662.00	     4.9329877	     9.4273814	     15436.393
        663.00	    0.83469040	     7.7594677	     15437.603
        664.00	    0.84712635	     8.1514771	     15438.823
        665.00	     16.585920	     8.7103088	     15440.023
        666.00	     3.0514766	     10.724531	     15441.233
        667.00	     11.203784	     9.0074018	     15442.443
        668.00	    -5.0776675	     10.606986	     15443.653
        669.00	     10.769746	     8.6141410	     15444.863
        670.00	     4.0018590	     7.0906143	     15446.073
        671.00	     2.4960935	     12.885575	     15447.283
        672.00	     8.8670140	     9.7321226	     15448.493
        673.00	     6.5929975	     8.0447065	     15449.703
        674.00	     3.4269871	     10.676852	     15450.913
        675.00	     3.4780461	     11.583624	     15452.123
        676.00	     3.5249084	     7.7173753	     15453.333
        677.00	     24.894134	     9.0581556	     15454.543
        678.00	     3.6329103	     7.4128439	     15455.753
        679.00	     20.372999	     12.335797	     15456.963
        680.00	    -3.3811747	     7.0499653	     15458.173
        681.00	     12.849570	     8.7473598	     15459.383
        682.00	     5.6929618	     11.715050	     15460.593
        683.00	     18.827851	     9.6714150	     15461.803
        684.00	     17.193444	     9.7618457	     15463.013
        685.00	    -7.4908033	     9.9649340	     15464.233
        686.00	    -11.482546	     10.159432	     15465.433
        687.00	     12.045741	     12.177388	     15466.643
        688.00	    0.20067666	     11.629439	     15467.853
        689.00	     22.590864	     10.667355	     15469.063
        690.00	     12.609548	     9.4288633	     15470.273
        691.00	     20.157063	     17.413260	     15471.483
        692.00	     7.6689810	     14.219558	     15472.693
        693.00	     5.6238977	     14.705828	     15473.903
        694.00	    -4.1784358	     15.485599	     15475.113
        695.00	     25.904557	     14.005498	     15479.733
        696.00	     9.2957593	     12.074319	     15480.943
        697.00	    -6.6698512	     16.177032	     15482.153
        698.00	     2.5685242	     20.552468	     15483.363
        699.00	     1.4232128	     23.119604	     15484.573
        700.00	     20.722127	     15.260481	     15485.783
        701.00	     23.479579	     15.339085	     15486.993
        702.00	     41.176786	     16.096917	     15488.203
        703.00	     27.933252	     16.075266	     15489.423
        704.00	     9.2200779	     9.7711680	     15490.622
        705.00	     19.756055	     14.653737	     15491.832
        706.00	    -6.3281924	     17.818375	     15493.043
        707.00	    -26.530869	     22.012978	     15494.253
        708.00	    -21.497013	     14.059228	     15495.463
        709.00	    -2.4854102	     17.104137	     15496.672
        710.00	     21.309073	     19.737727	     15497.882
        711.00	     13.092768	     18.951292	     15499.092
        712.00	     20.501806	     13.620679	     15500.303
        713.00	    -7.0347692	     19.565437	     15501.512
        714.00	    -17.598263	     17.931028	     15502.722
        715.00	     39.591137	     20.553347	     15503.933
        716.00	    -2.7616058	     20.075633	     15505.142
        717.00	     9.6734587	     14.195378	     15506.352
        718.00	    -9.1863062	     22.897395	     15507.562
        719.00	     18.020455	     19.037580	     15508.772
        720.00	    -7.8329435	     27.436017	     15509.982
        721.00	     8.6334760	     23.893735	     15511.192
        722.00	    -11.461288	     14.168759	     15512.402
        723.00	     22.569383	     23.882883	     15513.612
        724.00	    -18.770463	     17.341393	     15514.822
        725.00	     32.118272	     31.132650	     15516.032
        726.00	    -19.313245	     17.842851	     15517.243
        727.00	    -6.9029125	     25.867768	     15518.452
        728.00	    0.36908786	     25.872740	     15519.662
        729.00	     17.184862	     27.956463	     15520.872
        730.00	     15.561150	     13.873279	     15522.082
        731.00	    -24.625427	     19.910907	     15523.292
        732.00	    -17.190384	     17.950992	     15524.502
        733.00	    -27.372874	     32.693355	     15525.712
        734.00	    -17.707254	     24.368806	     15526.922
        735.00	    -9.7845135	     22.576743	     15528.133
        736.00	     33.516386	     35.467759	     15529.343
        737.00	    0.41914712	     27.846921	     15530.552
        738.00	    -22.977564	     25.726869	     15531.762
        739.00	     30.612188	     25.314576	     15532.972
        740.00	    -12.682159	     28.049265	     15534.182
        741.00	     49.257852	     17.949770	     15535.392
        742.00	     7.2079102	     32.171734	     15536.602
        743.00	     9.5998024	     23.618561	     15537.812
        744.00	    -36.598130	     25.851358	     15539.022
        745.00	    -39.416661	     23.669933	     15540.232
        746.00	     9.9897998	     22.438948	     15541.442
        747.00	    -35.634883	     36.107517	     15542.652
        748.00	    -9.2572096	     36.360717	     15543.862
        749.00	     49.796298	     26.866636	     15545.072
        750.00	     5.4859742	     30.978540	     15546.282
        751.00	    -12.114205	     27.441210	     15547.492
        752.00	    -19.944490	     27.074015	     15548.702
        753.00	    -9.8317459	     24.469423	     15549.922
        754.00	    -17.825134	     38.047122	     15551.132
        755.00	    -12.722444	     25.969580	     15552.332
        756.00	    -10.214693	     26.955335	     15553.552
        757.00	    -40.215459	     31.166348	     15554.752
        758.00	    -13.251518	     27.973005	     15555.962
        759.00	    -13.411302	     46.042518	     15557.172
        760.00	    -22.079393	     56.369547	     15558.382
        761.00	     26.396259	     47.396633	     15559.592
        762.00	    -5.2150700	     18.349320	     15560.802
        763.00	    -16.992045	     31.203929	     15562.012
        764.00	    -40.942408	     31.351337	     15563.222
        765.00	     12.602130	     32.269985	     15564.432
        766.00	    -78.384805	     44.386879	     15565.642
        767.00	     12.911799	     27.131589	     15566.852
        768.00	     22.386449	     35.359650	     15568.062
        769.00	     25.760717	     19.896489	     15569.272
        770.00	    -2.5448090	     35.422242	     15570.482
        771.00	     3.8567806	     46.203929	     15571.692
        772.00	     16.868220	     46.683951	     15572.902
        773.00	    0.65652041	     35.775510	     15574.112
        774.00	     7.2967714	     36.147283	     15575.322
        775.00	    -12.753440	     26.116847	     15576.532
        776.00	     7.4551021	     54.277723	     15577.742
        777.00	    -102.07337	     33.268161	     15578.952
        778.00	     52.526641	     40.953246	     15580.162
        779.00	    -13.290478	     38.401716	     15581.372
        780.00	     4.2397440	     38.703390	     15582.582
        781.00	    -45.713667	     38.831633	     15583.792
        782.00	    -31.725165	     66.257762	     15585.002
        783.00	     40.863283	     63.194002	     15586.212
        784.00	    -117.19771	     36.047266	     15587.422
        785.00	     11.895362	     43.208899	     15588.632
        786.00	     8.2487836	     46.243181	     15589.842
        787.00	    -10.600827	     41.550390	     15591.052
        788.00	    -3.0562963	     62.334377	     15592.272
        789.00	    -60.868233	     42.609458	     15593.472
        790.00	    -57.479507	     34.349181	     15594.682
        791.00	    -26.667161	     39.563468	     15595.892
        792.00	     32.427187	     33.890260	     15597.112
        793.00	    -126.81106	     35.692453	     15598.312
        794.00	    -35.200000	     35.276684	     15599.522
        795.00	     8.7370974	     34.748243	     15600.732
        796.00	     36.006808	     57.104890	     15601.942
        797.00	     23.652237	     41.107154	     15603.152
        798.00	     81.677487	     25.401349	     15604.362
        799.00	     7.8844661	     40.139811	     15605.572
        800.00	     28.935446	     57.875194	     15606.782
