Title=200311_em_MeCN_2,0uM_AT532
Comment=
Signature=ISS_Experiment_Ver_1_0
Timestamp=Wed Mar 11 18:05:12 2020
Product=Vinci2
SoftwareVersion=BETA.2.4
BuildNumber=234
RealTimeStart=25743.9719302

AcquisitionType=Photon Counting
AcquisitionFormat=L
AcquisitionSide=Right
Detector Gains=(0.0, 0.0)

Measurable=Intensity
MaxIterations=10

RightEmissionWavelengthBandwidth=8.0
ExcitationWavelengthBandwidth=8.0
Visualization=Y:Intensity,X:EmissionWavelength,PlotType:2D


EmissionWavelength=type:numeric,unit:nm,from:400.0,to:800.0,step:1.0
ExcitationWavelength=type:numeric,unit:nm,fixed:535.0

Space=EmissionWavelength
Columns=EmissionWavelength,Intensity,IntensityStdError,RealTime
[Data]
        400.00	     19.503095	     2.3685018	     25752.973
        401.00	     20.475392	     1.0758253	     25754.453
        402.00	     20.203187	     1.2212529	     25755.663
        403.00	     18.649094	     1.1196266	     25756.873
        404.00	     18.621209	     1.4847692	     25758.083
        405.00	     16.890044	     1.5796425	     25759.293
        406.00	     18.774671	     1.5266309	     25760.503
        407.00	     18.751479	     1.6070245	     25761.713
        408.00	     18.387559	     1.2764235	     25762.923
        409.00	     16.336595	     1.8900744	     25764.133
        410.00	     21.548432	     1.7342919	     25765.343
        411.00	     22.571611	     1.7472653	     25766.553
        412.00	     18.162938	     2.4284254	     25767.763
        413.00	     21.798188	     2.4677520	     25768.973
        414.00	     17.949997	     1.0623684	     25770.183
        415.00	     20.593986	     1.2427023	     25771.393
        416.00	     22.095267	     1.7889318	     25772.603
        417.00	     17.330795	     1.6978766	     25773.812
        418.00	     25.799833	     1.7673820	     25775.023
        419.00	     20.465858	     1.5879810	     25776.233
        420.00	     18.103236	     1.2816677	     25777.443
        421.00	     21.378486	     1.9668001	     25778.653
        422.00	     23.032537	     1.2181535	     25779.862
        423.00	     21.892954	     1.6318938	     25781.072
        424.00	     22.478118	     2.1659350	     25782.283
        425.00	     25.928526	     1.5635217	     25783.492
        426.00	     23.536209	     1.4772775	     25784.703
        427.00	     25.023510	     1.7001500	     25785.923
        428.00	     26.001977	     1.9586168	     25787.133
        429.00	     26.642203	     1.6914112	     25788.332
        430.00	     26.171633	     2.1207246	     25789.542
        431.00	     24.857562	     2.4675815	     25790.762
        432.00	     27.889984	     1.9918283	     25791.962
        433.00	     27.853565	     1.9988547	     25793.172
        434.00	     29.123451	     2.4546683	     25794.382
        435.00	     29.229489	     1.0239141	     25795.602
        436.00	     28.212280	     1.6989947	     25796.802
        437.00	     30.711609	     2.2107206	     25798.012
        438.00	     26.528073	     1.8354238	     25799.222
        439.00	     31.206051	    0.79457724	     25800.433
        440.00	     27.817219	     1.2920459	     25801.643
        441.00	     29.878898	     1.9241294	     25802.852
        442.00	     37.351232	     2.7438505	     25804.062
        443.00	     35.325481	     2.7613338	     25805.272
        444.00	     36.556093	     1.7555307	     25806.482
        445.00	     33.061189	     1.8792062	     25807.692
        446.00	     36.827045	     1.8905867	     25808.902
        447.00	     37.483787	     1.4471871	     25810.112
        448.00	     39.978956	     2.2037966	     25811.322
        449.00	     39.175598	     2.0052560	     25812.532
        450.00	     38.852158	     3.1822572	     25813.742
        451.00	     37.799997	     2.2577446	     25814.952
        452.00	     40.337865	     1.5404381	     25816.162
        453.00	     42.242835	     2.6643289	     25817.372
        454.00	     44.944530	     1.9188641	     25818.582
        455.00	     43.593469	     2.2874891	     25819.802
        456.00	     47.112460	     1.5530739	     25821.002
        457.00	     45.366602	     2.0953001	     25822.212
        458.00	     46.150390	     1.9293192	     25823.422
        459.00	     49.672816	     2.3116748	     25824.632
        460.00	     46.231144	     2.5226644	     25825.842
        461.00	     45.150441	     2.6360815	     25827.052
        462.00	     51.939171	     3.2392043	     25828.262
        463.00	     52.522582	     2.6990021	     25829.472
        464.00	     51.456612	     2.5984154	     25830.692
        465.00	     51.012278	     1.9136439	     25831.892
        466.00	     53.018127	     3.1441833	     25833.102
        467.00	     55.308017	     1.6024065	     25834.312
        468.00	     53.039210	     2.5256089	     25835.522
        469.00	     56.864627	     2.1223508	     25836.732
        470.00	     53.727503	     3.3043502	     25837.942
        471.00	     58.264560	     1.8706843	     25839.152
        472.00	     55.988674	     1.9834044	     25840.362
        473.00	     61.100103	     3.6325348	     25841.572
        474.00	     62.013957	     3.0643549	     25842.822
        475.00	     61.972288	     1.6557577	     25843.992
        476.00	     60.982072	     2.4683767	     25845.202
        477.00	     64.792600	     1.9429033	     25846.432
        478.00	     58.944752	     3.5018415	     25847.622
        479.00	     64.858021	     2.7176912	     25848.832
        480.00	     66.025326	     2.1392135	     25850.042
        481.00	     71.627639	     2.5762838	     25851.252
        482.00	     66.700981	     2.3338994	     25852.462
        483.00	     69.822327	     2.4118248	     25853.672
        484.00	     68.710139	     3.4439416	     25854.882
        485.00	     73.391646	     3.9169381	     25856.092
        486.00	     77.621103	     2.3979849	     25857.302
        487.00	     73.215544	     3.2171411	     25858.512
        488.00	     78.272059	     3.3794201	     25859.722
        489.00	     78.736804	     2.8629672	     25860.932
        490.00	     83.992905	     3.1317656	     25862.142
        491.00	     86.902950	     2.8102108	     25863.352
        492.00	     96.000296	     3.3122026	     25864.562
        493.00	     101.89409	     1.3969490	     25865.772
        494.00	     109.32626	     1.5833636	     25866.982
        495.00	     117.17984	     3.6175480	     25868.192
        496.00	     118.75491	     2.7623621	     25869.402
        497.00	     132.14403	     2.9192597	     25870.612
        498.00	     142.91219	     3.8252273	     25871.822
        499.00	     156.75668	     2.6625048	     25873.032
        500.00	     188.00494	     5.0566234	     25874.242
        501.00	     205.23830	     2.1632818	     25875.452
        502.00	     226.75794	     4.1571669	     25876.662
        503.00	     266.22710	     5.9961059	     25877.872
        504.00	     291.79709	     2.7087623	     25879.082
        505.00	     318.28314	     4.2010845	     25880.292
        506.00	     377.77210	     5.7029033	     25881.502
        507.00	     424.86437	     6.5965598	     25882.712
        508.00	     474.27979	     6.5698507	     25883.932
        509.00	     545.79834	     7.1398789	     25885.132
        510.00	     616.09100	     5.6718826	     25886.342
        511.00	     700.76826	     11.129319	     25887.552
        512.00	     805.37507	     8.3043915	     25888.762
        513.00	     943.49917	     6.8655841	     25889.972
        514.00	     1102.4996	     9.1868699	     25891.182
        515.00	     1266.9733	     12.120127	     25892.392
        516.00	     1486.8329	     5.7212866	     25893.602
        517.00	     1782.0879	     13.746926	     25894.812
        518.00	     2118.8545	     13.721294	     25896.022
        519.00	     2550.8038	     9.5842827	     25897.232
        520.00	     3099.4949	     17.679044	     25898.442
        521.00	     3762.0454	     24.811688	     25899.652
        522.00	     4563.4638	     18.392432	     25900.862
        523.00	     5551.0637	     21.084805	     25902.072
        524.00	     6807.6658	     14.935373	     25903.282
        525.00	     8313.8718	     21.130340	     25904.492
        526.00	     10085.635	     12.003880	     25905.702
        527.00	     12312.233	     16.884340	     25906.912
        528.00	     14855.308	     35.001748	     25908.122
        529.00	     18074.554	     30.970482	     25909.332
        530.00	     21672.923	     35.311723	     25910.542
        531.00	     25758.488	     33.361262	     25911.752
        532.00	     30766.742	     47.537746	     25912.962
        533.00	     36311.056	     25.432271	     25914.172
        534.00	     42451.456	     34.876412	     25915.382
        535.00	     49184.306	     54.758200	     25916.592
        536.00	     56556.881	     46.500657	     25917.802
        537.00	     64166.263	     62.322610	     25919.022
        538.00	     72394.393	     99.550436	     25920.222
        539.00	     80697.252	     68.497427	     25921.432
        540.00	     89257.349	     83.417272	     25922.642
        541.00	     97762.615	     68.828292	     25923.852
        542.00	     106309.79	     95.054587	     25925.062
        543.00	     114202.42	     48.393917	     25926.272
        544.00	     121962.71	     64.775459	     25927.482
        545.00	     129564.84	     90.485758	     25928.692
        546.00	     136385.20	     87.149492	     25933.312
        547.00	     142223.03	     75.008548	     25934.522
        548.00	     147333.95	     85.136254	     25935.732
        549.00	     152047.67	     58.408693	     25936.942
        550.00	     156023.38	     47.987193	     25938.151
        551.00	     159408.53	     23.314378	     25939.361
        552.00	     162261.31	     48.874513	     25940.571
        553.00	     164889.85	     47.733834	     25941.781
        554.00	     166904.61	     70.833436	     25942.991
        555.00	     168593.45	     44.983136	     25944.201
        556.00	     170084.02	     61.993624	     25945.411
        557.00	     171298.09	     64.652800	     25946.621
        558.00	     172087.89	     45.282641	     25947.832
        559.00	     172620.23	     46.400434	     25949.041
        560.00	     172589.26	     51.288331	     25950.251
        561.00	     172457.99	     96.707152	     25951.461
        562.00	     171951.39	     54.774307	     25952.671
        563.00	     170928.99	     104.65296	     25953.882
        564.00	     170053.64	     56.661993	     25955.091
        565.00	     168441.31	     98.715981	     25956.301
        566.00	     166879.77	     103.23876	     25957.511
        567.00	     164633.36	     92.243436	     25958.721
        568.00	     162119.97	     97.472089	     25959.931
        569.00	     159816.62	     63.906043	     25961.142
        570.00	     156306.57	     75.893862	     25962.351
        571.00	     153094.08	     90.373807	     25963.561
        572.00	     149928.42	     122.46385	     25964.781
        573.00	     146607.16	     89.065020	     25965.981
        574.00	     142405.14	     128.29092	     25967.191
        575.00	     138776.25	     115.94351	     25968.401
        576.00	     134245.33	     116.97262	     25969.611
        577.00	     130436.74	     76.630862	     25970.821
        578.00	     126526.57	     101.14334	     25972.031
        579.00	     122703.65	     117.70974	     25973.241
        580.00	     118914.61	     87.023807	     25974.451
        581.00	     115004.97	     113.55231	     25975.661
        582.00	     111362.75	     116.03245	     25976.871
        583.00	     107949.04	     40.062532	     25978.081
        584.00	     104631.65	     135.29376	     25979.291
        585.00	     101867.04	     80.025688	     25980.501
        586.00	     99145.727	     122.23173	     25981.711
        587.00	     96419.678	     146.31577	     25982.921
        588.00	     93923.159	     81.835534	     25984.131
        589.00	     91766.408	     62.467780	     25985.341
        590.00	     89903.733	     91.822476	     25986.552
        591.00	     88080.333	     82.639278	     25987.761
        592.00	     86525.867	     74.425899	     25988.981
        593.00	     84924.336	     66.361173	     25990.181
        594.00	     83866.738	     82.398589	     25991.391
        595.00	     82689.527	     101.11587	     25992.601
        596.00	     81688.667	     102.30325	     25993.811
        597.00	     80663.881	     111.20570	     25995.021
        598.00	     79634.389	     86.070415	     25996.231
        599.00	     78984.563	     86.323577	     25997.441
        600.00	     77991.432	     51.549447	     25998.651
        601.00	     76905.236	     102.02606	     25999.871
        602.00	     76069.548	     67.306611	     26001.071
        603.00	     75080.435	     78.196924	     26002.281
        604.00	     73931.726	     100.09712	     26003.491
        605.00	     73060.781	     75.644987	     26004.711
        606.00	     71839.216	     123.20303	     26005.911
        607.00	     70509.645	     79.088248	     26007.131
        608.00	     69176.288	     129.44897	     26008.331
        609.00	     67710.449	     104.47420	     26009.541
        610.00	     66511.079	     99.054070	     26010.752
        611.00	     64690.936	     101.08000	     26011.961
        612.00	     63175.420	     129.86105	     26013.171
        613.00	     61732.645	     65.003623	     26014.381
        614.00	     59906.492	     85.312246	     26015.591
        615.00	     58282.402	     75.593401	     26016.801
        616.00	     56315.119	     127.81002	     26018.011
        617.00	     54587.129	     97.743248	     26019.221
        618.00	     52843.938	     67.200256	     26020.431
        619.00	     50937.122	     48.342306	     26021.641
        620.00	     49138.843	     59.472075	     26022.851
        621.00	     47411.497	     79.978836	     26024.061
        622.00	     45727.064	     83.234356	     26025.271
        623.00	     43951.462	     42.969601	     26026.481
        624.00	     42114.993	     70.165826	     26027.691
        625.00	     40551.794	     48.570509	     26028.901
        626.00	     39006.288	     83.537874	     26030.111
        627.00	     37406.230	     56.295273	     26031.321
        628.00	     35744.400	     87.282721	     26032.531
        629.00	     34626.852	     52.412761	     26033.741
        630.00	     33045.347	     73.446476	     26034.951
        631.00	     31601.172	     96.917486	     26036.161
        632.00	     30323.333	     53.488375	     26037.371
        633.00	     29268.522	     91.021911	     26038.591
        634.00	     27929.623	     67.881043	     26039.791
        635.00	     26621.551	     75.678248	     26041.011
        636.00	     25745.295	     56.785262	     26042.221
        637.00	     24767.304	     68.817670	     26043.421
        638.00	     23668.389	     58.811243	     26044.631
        639.00	     22729.317	     79.258108	     26045.841
        640.00	     21863.537	     63.746080	     26047.051
        641.00	     20903.775	     81.264116	     26048.261
        642.00	     20236.842	     44.638904	     26049.471
        643.00	     19339.540	     94.725614	     26050.681
        644.00	     18698.690	     72.577703	     26051.891
        645.00	     18119.497	     75.651306	     26053.101
        646.00	     17466.309	     58.293740	     26054.311
        647.00	     16954.466	     77.127913	     26055.521
        648.00	     16333.774	     54.925956	     26056.731
        649.00	     15800.830	     54.305842	     26057.941
        650.00	     15349.176	     62.003536	     26059.151
        651.00	     14977.553	     34.760199	     26060.361
        652.00	     14460.455	     28.394968	     26061.571
        653.00	     14061.362	     46.611091	     26062.781
        654.00	     13667.161	     61.192417	     26063.991
        655.00	     13135.077	     44.605434	     26065.201
        656.00	     12950.494	     55.700256	     26066.411
        657.00	     12465.831	     42.815843	     26067.631
        658.00	     12226.827	     85.037206	     26068.831
        659.00	     11999.125	     34.023601	     26070.041
        660.00	     11610.240	     76.890633	     26071.251
        661.00	     11379.335	     42.877395	     26072.461
        662.00	     11031.942	     56.785617	     26073.671
        663.00	     10897.440	     35.086550	     26074.881
        664.00	     10450.574	     35.672221	     26076.091
        665.00	     10246.667	     50.711063	     26077.301
        666.00	     10061.009	     52.864776	     26078.511
        667.00	     9677.8584	     64.717268	     26079.721
        668.00	     9510.7700	     47.916689	     26080.931
        669.00	     9274.7233	     74.067997	     26082.141
        670.00	     9092.5314	     39.187756	     26083.351
        671.00	     8797.7934	     49.179658	     26084.561
        672.00	     8506.6332	     51.182845	     26085.771
        673.00	     8242.6942	     54.889327	     26086.981
        674.00	     7930.0481	     52.820771	     26088.191
        675.00	     7737.6589	     49.348615	     26089.401
        676.00	     7504.5300	     49.922683	     26090.611
        677.00	     7285.6265	     48.167397	     26091.821
        678.00	     7098.7067	     61.596629	     26093.031
        679.00	     6927.5223	     46.463458	     26094.241
        680.00	     6645.6099	     29.325360	     26095.451
        681.00	     6460.7999	     44.043597	     26096.661
        682.00	     6185.8621	     30.020150	     26097.871
        683.00	     6065.7371	     54.000316	     26099.080
        684.00	     5780.3982	     51.508730	     26100.291
        685.00	     5663.0473	     40.945312	     26101.500
        686.00	     5522.1317	     33.889620	     26102.711
        687.00	     5226.8641	     35.934265	     26103.931
        688.00	     5089.9627	     48.008858	     26105.141
        689.00	     4902.6245	     51.206046	     26106.340
        690.00	     4730.4409	     53.417759	     26107.550
        691.00	     4500.4843	     41.613044	     26108.760
        692.00	     4397.7345	     35.815619	     26109.970
        693.00	     4254.4786	     38.324037	     26111.220
        694.00	     4169.4192	     42.883947	     26112.390
        695.00	     3984.8355	     50.012401	     26117.010
        696.00	     3889.2550	     33.373139	     26118.221
        697.00	     3764.7860	     44.901389	     26119.430
        698.00	     3577.0202	     24.677819	     26120.640
        699.00	     3543.5627	     37.548681	     26121.851
        700.00	     3391.2001	     31.784142	     26123.060
        701.00	     3312.5773	     49.516752	     26124.270
        702.00	     3084.2901	     37.217126	     26125.490
        703.00	     3014.5263	     59.233076	     26126.690
        704.00	     3011.6360	     44.419638	     26127.900
        705.00	     2816.2777	     29.840612	     26129.110
        706.00	     2763.0470	     31.089893	     26130.320
        707.00	     2679.6178	     40.517120	     26131.540
        708.00	     2616.1049	     42.292129	     26132.741
        709.00	     2428.5220	     32.139282	     26133.950
        710.00	     2462.8802	     43.597256	     26135.160
        711.00	     2273.8722	     38.482947	     26136.370
        712.00	     2276.5667	     42.948514	     26137.580
        713.00	     2297.7315	     37.844187	     26138.790
        714.00	     2205.4501	     35.903380	     26140.000
        715.00	     2124.3214	     24.077896	     26141.210
        716.00	     2012.5969	     53.756305	     26142.420
        717.00	     2026.4336	     35.181297	     26143.630
        718.00	     1950.9814	     43.178969	     26144.840
        719.00	     1961.0116	     36.674459	     26146.051
        720.00	     1894.2668	     36.081854	     26147.260
        721.00	     1802.7362	     17.012847	     26148.470
        722.00	     1725.5980	     36.414940	     26149.680
        723.00	     1728.2676	     46.090707	     26150.890
        724.00	     1718.5402	     41.840684	     26152.100
        725.00	     1663.7971	     57.863868	     26153.310
        726.00	     1582.2555	     34.573092	     26154.520
        727.00	     1554.6086	     22.206937	     26155.730
        728.00	     1496.2822	     37.920173	     26156.940
        729.00	     1495.8301	     33.989524	     26158.150
        730.00	     1441.8734	     36.933467	     26159.360
        731.00	     1461.7499	     34.587916	     26160.570
        732.00	     1415.8625	     45.692053	     26161.780
        733.00	     1455.5228	     46.663609	     26162.990
        734.00	     1351.7878	     32.783503	     26164.200
        735.00	     1381.6548	     46.982499	     26165.410
        736.00	     1350.5862	     45.620450	     26166.630
        737.00	     1273.7881	     54.116169	     26167.830
        738.00	     1299.5089	     44.964732	     26169.040
        739.00	     1275.7953	     34.380142	     26170.250
        740.00	     1154.0765	     38.298094	     26171.460
        741.00	     1186.6261	     42.254826	     26172.670
        742.00	     1055.9588	     41.911853	     26173.880
        743.00	     1185.8042	     39.265016	     26175.090
        744.00	     1166.9708	     59.211511	     26176.300
        745.00	     1085.8352	     42.520808	     26177.510
        746.00	     1019.9110	     32.651201	     26178.720
        747.00	     1025.2252	     42.808844	     26179.930
        748.00	     1068.9641	     46.193355	     26181.140
        749.00	     1007.7588	     32.621396	     26182.360
        750.00	     986.97664	     37.954464	     26183.560
        751.00	     943.39374	     29.154389	     26184.770
        752.00	     960.91530	     41.449820	     26185.980
        753.00	     894.68888	     28.926911	     26187.190
        754.00	     937.91662	     31.997572	     26188.400
        755.00	     882.08946	     48.035274	     26189.610
        756.00	     851.58279	     37.633078	     26190.820
        757.00	     907.02165	     48.784733	     26192.040
        758.00	     893.92530	     30.811010	     26193.240
        759.00	     843.23564	     32.914683	     26194.450
        760.00	     794.85814	     41.344894	     26195.660
        761.00	     774.09900	     38.600582	     26196.870
        762.00	     744.01666	     58.617352	     26198.080
        763.00	     796.28239	     42.218330	     26199.290
        764.00	     708.48166	     39.010169	     26200.500
        765.00	     746.52615	     54.561947	     26201.710
        766.00	     768.04957	     39.690496	     26202.920
        767.00	     703.38565	     32.340438	     26204.130
        768.00	     711.39161	     40.086419	     26205.340
        769.00	     787.90095	     36.875140	     26206.550
        770.00	     730.99639	     46.811211	     26207.760
        771.00	     610.01413	     30.846060	     26208.970
        772.00	     725.98223	     63.612938	     26210.180
        773.00	     619.75527	     52.430370	     26211.390
        774.00	     593.02851	     49.393190	     26212.600
        775.00	     600.08293	     52.425028	     26213.810
        776.00	     517.79072	     60.365494	     26215.030
        777.00	     663.81945	     35.760983	     26216.230
        778.00	     621.33487	     49.263089	     26217.440
        779.00	     576.38706	     29.122460	     26218.650
        780.00	     564.59257	     32.231316	     26219.860
        781.00	     559.99242	     52.757667	     26221.070
        782.00	     525.62831	     52.724848	     26222.280
        783.00	     521.00686	     68.105472	     26223.490
        784.00	     507.85675	     49.460929	     26224.700
        785.00	     582.87271	     46.429068	     26225.910
        786.00	     516.67381	     48.742812	     26227.120
        787.00	     468.70799	     39.122099	     26228.330
        788.00	     530.26742	     59.130098	     26229.540
        789.00	     569.38764	     62.922856	     26230.750
        790.00	     410.90080	     64.274473	     26231.960
        791.00	     461.96935	     76.234215	     26233.170
        792.00	     442.11702	     47.691831	     26234.380
        793.00	     409.94268	     35.068193	     26235.590
        794.00	     487.20000	     59.164554	     26236.800
        795.00	     436.06059	     38.115402	     26238.010
        796.00	     402.33694	     74.670230	     26239.220
        797.00	     418.87348	     54.974833	     26240.430
        798.00	     426.04743	     33.021526	     26241.640
        799.00	     432.92887	     41.382715	     26242.850
        800.00	     405.09624	     73.116202	     26244.060
