Title=200311_em_NaOH-EtOH_2,0uM_ST520
Comment=
Signature=ISS_Experiment_Ver_1_0
Timestamp=Wed Mar 11 14:27:53 2020
Product=Vinci2
SoftwareVersion=BETA.2.4
BuildNumber=234
RealTimeStart=12699.7138659

AcquisitionType=Photon Counting
AcquisitionFormat=L
AcquisitionSide=Right
Detector Gains=(0.0, 0.0)

Measurable=Intensity
MaxIterations=10

RightEmissionWavelengthBandwidth=8.0
ExcitationWavelengthBandwidth=8.0
Visualization=Y:Intensity,X:EmissionWavelength,PlotType:2D


EmissionWavelength=type:numeric,unit:nm,from:600.0,to:800.0,step:1.0
ExcitationWavelength=type:numeric,unit:nm,fixed:657.0

Space=EmissionWavelength
Columns=EmissionWavelength,Intensity,IntensityStdError,RealTime
[Data]
        600.00	     3.5323897	     3.1828273	     12713.881
        601.00	    -5.1732887	     2.6044940	     12715.391
        602.00	    -4.2057019	     4.4366575	     12716.601
        603.00	    -1.1627133	     4.6847595	     12717.811
        604.00	     2.6211078	     4.8773766	     12719.031
        605.00	     9.9615767	     3.3829427	     12720.231
        606.00	    0.91412002	     2.1127606	     12721.441
        607.00	     4.8232383	     4.0677515	     12722.651
        608.00	     3.0760309	     4.2805291	     12723.862
        609.00	     10.337595	     3.9759979	     12725.071
        610.00	    0.21913028	     4.7789358	     12726.281
        611.00	     2.0641205	     5.1191826	     12727.491
        612.00	   -0.14887679	     3.8359656	     12728.701
        613.00	     5.4913314	     4.8248196	     12729.911
        614.00	     4.0221794	     2.5952271	     12731.121
        615.00	    -3.9869354	     6.0425536	     12732.331
        616.00	     3.3315954	     5.1797711	     12733.541
        617.00	     1.0171991	     3.4131600	     12734.751
        618.00	     4.1960746	     4.2162752	     12735.961
        619.00	    -4.5578169	     5.4770360	     12737.172
        620.00	     11.167478	     3.1916758	     12738.381
        621.00	    -2.6182263	     4.1897871	     12739.591
        622.00	     2.7287941	     3.6696842	     12740.801
        623.00	     6.9434383	     5.1587794	     12742.011
        624.00	     7.0205894	     5.0219808	     12743.221
        625.00	     7.5251263	     4.3228860	     12744.441
        626.00	     4.5865926	     2.4177768	     12745.641
        627.00	     16.467364	     3.8068822	     12746.851
        628.00	     7.7840977	     3.8444022	     12748.061
        629.00	     11.476711	     4.6685407	     12749.271
        630.00	     11.156645	     7.8857229	     12750.481
        631.00	     14.502519	     4.0590222	     12751.701
        632.00	     8.1764353	     5.8763997	     12752.901
        633.00	     10.164511	     6.6623856	     12754.111
        634.00	     9.3364227	     5.1598270	     12755.321
        635.00	     5.1018687	     6.8086188	     12756.531
        636.00	    -5.5604547	     4.5086588	     12757.741
        637.00	     5.2366552	     7.9334927	     12758.951
        638.00	     6.8008587	     4.2952419	     12760.161
        639.00	     5.8762454	     5.9076042	     12761.371
        640.00	     12.605656	     3.8232083	     12762.581
        641.00	     1.3505811	     6.3501972	     12763.791
        642.00	     15.566882	     4.2072655	     12765.001
        643.00	     15.748811	     8.1195218	     12766.211
        644.00	     16.493232	     5.2718698	     12767.421
        645.00	     15.611880	     7.0212634	     12768.631
        646.00	     24.125195	     6.1836692	     12769.841
        647.00	     15.472370	     7.2853142	     12771.051
        648.00	     15.090352	     6.1246914	     12772.271
        649.00	     12.988338	     3.6599093	     12773.471
        650.00	     13.743201	     5.9640412	     12774.681
        651.00	     8.6248325	     5.1386627	     12775.891
        652.00	     20.116562	     6.3235373	     12777.101
        653.00	     80.549192	     5.2995830	     12778.311
        654.00	     368.95697	     10.884517	     12779.521
        655.00	     1143.1071	     13.557514	     12780.741
        656.00	     2737.0045	     31.545228	     12781.941
        657.00	     4867.3370	     34.615664	     12783.151
        658.00	     6910.7419	     34.589741	     12784.361
        659.00	     8118.0045	     31.849342	     12785.571
        660.00	     7637.8377	     40.548608	     12786.781
        661.00	     5853.4585	     47.475582	     12787.991
        662.00	     3647.3963	     26.637263	     12789.201
        663.00	     1790.1327	     25.529710	     12790.411
        664.00	     630.82676	     22.229284	     12791.621
        665.00	     150.56012	     10.169165	     12792.831
        666.00	     28.044523	     6.9729534	     12794.041
        667.00	     10.024439	     7.0528315	     12795.251
        668.00	     5.6750402	     9.5106571	     12796.462
        669.00	     19.415880	     9.1711503	     12797.671
        670.00	     22.010224	     12.219528	     12798.891
        671.00	     12.948485	     9.6203602	     12800.091
        672.00	     18.684065	     10.503057	     12801.301
        673.00	     17.366920	     11.063247	     12802.511
        674.00	     30.679694	     10.321033	     12803.721
        675.00	     4.6373948	     6.3906817	     12804.931
        676.00	     32.395587	     12.350462	     12806.141
        677.00	     7.3318341	     5.6048981	     12807.351
        678.00	     18.683539	     10.956396	     12808.561
        679.00	     9.3083532	     5.0784243	     12809.771
        680.00	     14.770395	     8.4360087	     12810.981
        681.00	     19.545825	     12.377987	     12812.191
        682.00	     23.506423	     9.8515644	     12813.401
        683.00	     33.181757	     12.176535	     12814.611
        684.00	     14.737238	     9.2131285	     12815.821
        685.00	     24.585201	     10.303681	     12817.031
        686.00	     40.480841	     11.161198	     12818.241
        687.00	     9.4786156	     10.281994	     12819.451
        688.00	     30.703528	     12.871321	     12820.661
        689.00	     47.420462	     9.5278983	     12821.871
        690.00	     8.8886977	     13.294309	     12823.081
        691.00	     43.673637	     8.6004910	     12824.291
        692.00	     33.658305	     11.137339	     12825.501
        693.00	     40.665106	     12.278401	     12826.711
        694.00	     61.137114	     15.359290	     12827.920
        695.00	     27.467763	     14.705114	     12829.131
        696.00	     42.624457	     12.646163	     12830.341
        697.00	     19.089574	     13.655189	     12831.551
        698.00	     48.568458	     14.267220	     12832.761
        699.00	     67.128204	     12.804278	     12833.971
        700.00	     50.118632	     8.0718913	     12835.190
        701.00	     32.529000	     10.384610	     12836.390
        702.00	     55.315804	     14.446111	     12837.601
        703.00	     38.502590	     11.570166	     12838.810
        704.00	     43.027030	     12.975283	     12840.021
        705.00	     41.071799	     14.525080	     12841.231
        706.00	     44.297347	     11.660133	     12842.440
        707.00	     75.840767	     14.187655	     12843.650
        708.00	     78.368858	     9.2944656	     12844.860
        709.00	     68.486860	     24.939190	     12846.071
        710.00	     58.319568	     11.484661	     12847.280
        711.00	    -3.4155046	     19.559009	     12848.500
        712.00	     71.611941	     21.501204	     12849.700
        713.00	     36.053192	     16.356492	     12850.910
        714.00	     48.618930	     14.104721	     12852.120
        715.00	     40.195582	     8.5629685	     12853.330
        716.00	     74.563356	     18.922114	     12854.540
        717.00	     71.146728	     22.162909	     12855.750
        718.00	     12.037229	     22.891307	     12856.960
        719.00	     21.881981	     21.877774	     12858.170
        720.00	     33.616383	     12.652057	     12859.380
        721.00	     69.067808	     30.332699	     12860.590
        722.00	     27.979027	     10.792361	     12861.800
        723.00	     33.512114	     18.520660	     12863.010
        724.00	     46.230956	     20.143880	     12864.220
        725.00	     50.471571	     15.663278	     12865.430
        726.00	     18.955592	     16.226294	     12866.640
        727.00	     28.338272	     14.532447	     12867.850
        728.00	     21.407096	     22.551641	     12869.060
        729.00	     38.479146	     18.480976	     12870.271
        730.00	     35.297242	     21.994785	     12871.480
        731.00	     8.8497627	     16.978978	     12872.690
        732.00	     24.613504	     28.270750	     12873.900
        733.00	     70.614081	     18.179459	     12875.110
        734.00	    -4.8292510	     27.162467	     12876.320
        735.00	     33.838109	     33.071910	     12877.530
        736.00	     55.033078	     25.516590	     12878.740
        737.00	    -7.1255010	     9.0815209	     12879.950
        738.00	     9.7867404	     26.354563	     12881.161
        739.00	    -5.1738909	     14.726835	     12882.370
        740.00	     38.483794	     46.212236	     12883.580
        741.00	     7.9877598	     36.413930	     12884.790
        742.00	     23.876202	     26.872786	     12886.000
        743.00	     51.656079	     18.739993	     12887.210
        744.00	     10.655152	     26.080948	     12888.420
        745.00	     18.300593	     24.989765	     12889.630
        746.00	     68.501485	     29.195511	     12894.250
        747.00	    -19.743651	     20.758952	     12895.461
        748.00	     9.2572096	     22.982195	     12896.670
        749.00	    -12.818849	     21.490795	     12897.880
        750.00	    -57.852092	     25.266542	     12899.090
        751.00	     42.399719	     28.204318	     12900.300
        752.00	     30.172433	     49.471785	     12901.510
        753.00	    -21.215873	     37.084656	     12902.720
        754.00	     2.0970746	     41.722475	     12903.940
        755.00	    -56.190795	     27.029996	     12905.140
        756.00	     26.343154	     36.824365	     12906.350
        757.00	     78.257110	     26.188656	     12907.560
        758.00	     16.012251	     16.589940	     12908.770
        759.00	    -53.645210	     32.530323	     12909.980
        760.00	   -0.56613828	     25.124324	     12911.190
        761.00	    -3.4429904	     42.728099	     12912.400
        762.00	     25.495898	     35.034371	     12913.610
        763.00	     58.007326	     28.454454	     12914.820
        764.00	    -12.460733	     24.723676	     12916.030
        765.00	     17.402941	     29.415853	     12917.240
        766.00	   -0.60763415	     22.848085	     12918.450
        767.00	     48.572960	     34.976729	     12919.660
        768.00	    -22.386449	     33.035305	     12920.870
        769.00	     40.211851	     38.844725	     12922.080
        770.00	     53.440989	     43.253436	     12923.290
        771.00	     34.711026	     32.846293	     12924.500
        772.00	    -3.8926661	     28.526551	     12925.720
        773.00	     45.299908	     48.454686	     12926.920
        774.00	    -53.730771	     24.247074	     12928.130
        775.00	     26.178114	     47.476572	     12929.340
        776.00	    -14.232468	     50.830241	     12930.550
        777.00	   -0.68505620	     30.401714	     12931.760
        778.00	    -11.058240	     38.273601	     12932.970
        779.00	    -4.1969932	     24.343275	     12934.180
        780.00	     52.290175	     41.202905	     12935.390
        781.00	    -14.999797	     36.206430	     12936.600
        782.00	    -15.141556	     24.773903	     12937.810
        783.00	     10.215821	     46.086231	     12939.020
        784.00	     47.173922	     47.832201	     12940.230
        785.00	    -52.785667	     31.469241	     12941.440
        786.00	    -98.235514	     39.542399	     12942.650
        787.00	    -12.115231	     35.783967	     12943.860
        788.00	    -61.890001	     32.241351	     12945.070
        789.00	     60.868233	     47.094858	     12946.280
        790.00	    -24.079253	     36.639228	     12947.490
        791.00	     22.745520	     48.648730	     12948.700
        792.00	     62.481654	     23.763798	     12949.910
        793.00	    -28.711938	     62.290947	     12951.120
        794.00	     15.200000	     32.138589	     12952.330
        795.00	    -16.679913	     38.934204	     12953.540
        796.00	     34.441295	     43.189763	     12954.750
        797.00	     22.126286	     34.239568	     12955.960
        798.00	     65.489156	     31.530355	     12957.170
        799.00	     56.624802	     42.151500	     12958.380
        800.00	    -43.050297	     27.859704	     12959.600
