Title=200311_em_MeCN_2,0uM_ST520
Comment=
Signature=ISS_Experiment_Ver_1_0
Timestamp=Wed Mar 11 17:43:57 2020
Product=Vinci2
SoftwareVersion=BETA.2.4
BuildNumber=234
RealTimeStart=24468.6953313

AcquisitionType=Photon Counting
AcquisitionFormat=L
AcquisitionSide=Right
Detector Gains=(0.0, 0.0)

Measurable=Intensity
MaxIterations=10

RightEmissionWavelengthBandwidth=8.0
ExcitationWavelengthBandwidth=8.0
Visualization=Y:Intensity,X:EmissionWavelength,PlotType:2D


EmissionWavelength=type:numeric,unit:nm,from:400.0,to:800.0,step:1.0
ExcitationWavelength=type:numeric,unit:nm,fixed:494.0

Space=EmissionWavelength
Columns=EmissionWavelength,Intensity,IntensityStdError,RealTime
[Data]
        400.00	    -2.2822771	     1.1836274	     24477.821
        401.00	    -2.2750436	     1.6199755	     24479.301
        402.00	    -3.9901868	     1.2230458	     24480.511
        403.00	    -2.6053881	    0.90459853	     24481.721
        404.00	   -0.54768262	     1.3521971	     24482.931
        405.00	     2.4161196	     1.2368421	     24484.141
        406.00	     2.4093403	     1.4072802	     24485.351
        407.00	    0.24971703	     1.3999288	     24486.561
        408.00	    0.58949016	    0.79623901	     24487.772
        409.00	    0.47582317	     1.5483135	     24488.981
        410.00	    -2.3565057	    0.92194931	     24490.191
        411.00	    -1.4503846	     1.2086539	     24491.401
        412.00	    -1.1110911	     1.5159342	     24492.611
        413.00	    -1.1114581	     1.2475550	     24493.821
        414.00	    0.70347648	     1.4277234	     24495.031
        415.00	   -0.77284275	     1.5229360	     24496.241
        416.00	    -1.3425549	     1.1999021	     24497.461
        417.00	    -2.3684660	     1.5905408	     24498.661
        418.00	     1.0493301	     1.8375512	     24499.871
        419.00	    -1.4618470	     1.5151244	     24501.081
        420.00	    -3.1812260	     1.1750641	     24502.291
        421.00	    -1.9288860	     2.0381171	     24503.501
        422.00	    0.82834299	     1.5923007	     24504.721
        423.00	     2.6704340	     1.3379485	     24505.921
        424.00	    -1.9345922	     1.2707618	     24507.132
        425.00	    -1.5959574	     1.0800797	     24508.341
        426.00	   -0.55597343	     2.3178426	     24509.551
        427.00	   -0.55814521	     1.3109850	     24510.761
        428.00	   -0.20969336	     1.4944055	     24511.971
        429.00	     3.1755824	    0.83828602	     24513.181
        430.00	    0.37522054	     1.9369997	     24514.391
        431.00	    -1.2711253	     2.1899898	     24515.601
        432.00	    0.49592689	     1.2201376	     24516.811
        433.00	     1.5632103	     1.4320235	     24518.021
        434.00	   -0.45134223	     1.1092666	     24519.231
        435.00	    -1.7642595	     1.3321792	     24520.441
        436.00	     1.9349659	     1.1012039	     24521.651
        437.00	    0.14384829	     1.2508788	     24522.861
        438.00	    -1.9034675	     1.1919419	     24524.071
        439.00	     1.3536320	     1.2866529	     24525.281
        440.00	    0.75247278	     1.6207475	     24526.491
        441.00	   -0.95047066	     1.4918626	     24527.701
        442.00	     1.2483046	     1.6158856	     24528.921
        443.00	    -2.6813909	     2.2683708	     24530.121
        444.00	    -1.7031535	     1.4631833	     24531.331
        445.00	    -2.8210895	     1.9797119	     24532.541
        446.00	   -0.59679209	     2.0738518	     24533.751
        447.00	   -0.59934103	     1.2651660	     24534.961
        448.00	   0.025128194	     1.5495720	     24536.181
        449.00	    0.53042395	     1.3318939	     24537.381
        450.00	    -1.3703570	     1.3744238	     24538.591
        451.00	    0.40699862	     1.6397872	     24539.801
        452.00	     3.9928344	     1.4777333	     24541.011
        453.00	     2.0787786	     1.4847916	     24542.221
        454.00	    0.28396888	     1.9188641	     24543.431
        455.00	   -0.49272809	     1.5493660	     24544.651
        456.00	    -1.1478119	     1.3748863	     24545.861
        457.00	    0.55037472	     1.5995666	     24547.061
        458.00	    -4.8496127	    0.87414921	     24548.271
        459.00	     3.9981851	     1.2706091	     24549.481
        460.00	     4.2752522	     1.6375190	     24550.691
        461.00	     1.6287267	     1.9645951	     24551.901
        462.00	   -0.24207796	     2.0153229	     24553.111
        463.00	     1.5114412	     1.5188133	     24554.321
        464.00	     1.5198155	    0.99099673	     24555.531
        465.00	   -0.79279531	     1.9760877	     24556.741
        466.00	     2.0866792	     1.3758626	     24557.951
        467.00	    -1.2131370	     1.1982857	     24559.161
        468.00	     3.3583173	     1.0353900	     24560.371
        469.00	     2.2567539	     2.1903471	     24561.581
        470.00	     1.9857640	     2.0000688	     24562.791
        471.00	     1.4382830	     1.4014377	     24564.011
        472.00	   -0.96336787	     1.6602413	     24565.211
        473.00	     1.7367690	     1.5659393	     24566.421
        474.00	     1.1738561	     2.0914304	     24567.631
        475.00	     2.7658483	     1.7286552	     24568.841
        476.00	     1.7663373	     1.3895361	     24570.051
        477.00	     1.0478588	     1.7651962	     24571.261
        478.00	     2.5145083	     2.5151881	     24572.471
        479.00	     1.0584265	     1.6281390	     24573.681
        480.00	    0.91742946	     1.5480246	     24574.891
        481.00	    -1.3098986	     2.0457767	     24576.101
        482.00	     3.9253498	     1.9374213	     24577.351
        483.00	   -0.57280838	     2.2498921	     24578.521
        484.00	     3.0625437	     1.8561610	     24579.731
        485.00	     2.9283450	     1.2821189	     24580.941
        486.00	     4.9375732	     2.2449286	     24582.151
        487.00	     4.9611543	     1.7256495	     24583.361
        488.00	     10.742615	     2.4138602	     24584.571
        489.00	     40.477151	     1.7389448	     24585.781
        490.00	     115.22345	     2.6985327	     24586.991
        491.00	     296.81575	     4.7838497	     24588.201
        492.00	     591.54710	     5.3075791	     24589.411
        493.00	     918.22831	     8.1131409	     24590.621
        494.00	     1156.5281	     7.3943862	     24591.831
        495.00	     1226.1343	     8.8088989	     24593.041
        496.00	     1069.5059	     5.5480892	     24594.251
        497.00	     750.02613	     8.0107752	     24595.461
        498.00	     452.62182	     6.4895420	     24596.671
        499.00	     209.85114	     4.6636168	     24597.881
        500.00	     85.395990	     3.1832030	     24599.090
        501.00	     24.305488	     2.0392638	     24600.301
        502.00	     8.9720348	     2.0400251	     24601.511
        503.00	     4.2483048	     2.9980529	     24602.721
        504.00	     3.3702054	     3.3584385	     24603.930
        505.00	     2.6436808	     3.1141769	     24605.140
        506.00	     4.5254375	     2.5686353	     24606.350
        507.00	     3.1422433	     2.1834428	     24607.561
        508.00	     4.8404413	     2.4051453	     24608.770
        509.00	     4.0240105	     3.0097166	     24609.981
        510.00	     3.1991607	     3.4825035	     24611.190
        511.00	    0.88406424	     2.5693760	     24612.400
        512.00	    -2.0622585	     3.2213214	     24613.610
        513.00	     3.6037009	     3.1107841	     24614.820
        514.00	     8.3778462	     2.2066358	     24616.030
        515.00	     7.3012445	     3.3474321	     24617.240
        516.00	     5.4132768	     3.3351019	     24618.450
        517.00	     2.3031299	     2.0563660	     24619.660
        518.00	     11.099912	     3.3588948	     24620.871
        519.00	     10.043017	     2.0816886	     24622.080
        520.00	     7.9655548	     2.6718588	     24623.290
        521.00	     10.988988	     1.8643587	     24624.500
        522.00	     11.987161	     2.5577060	     24625.710
        523.00	     12.794948	     3.7549197	     24626.920
        524.00	     11.375053	     2.7694646	     24628.130
        525.00	     17.618073	     4.1098456	     24629.340
        526.00	     12.778092	     3.2712619	     24630.550
        527.00	     13.399099	     2.8183444	     24631.760
        528.00	     15.672812	     3.7090127	     24632.970
        529.00	     19.350595	     2.7135530	     24634.180
        530.00	     20.632491	     1.5497140	     24635.390
        531.00	     21.687971	     3.7931844	     24636.600
        532.00	     25.456839	     3.2198520	     24637.810
        533.00	     23.498412	     3.2178158	     24639.020
        534.00	     28.946493	     1.8325246	     24640.240
        535.00	     28.029947	     2.3577666	     24641.440
        536.00	     33.999728	     3.1944189	     24642.650
        537.00	     38.978062	     2.3195324	     24643.861
        538.00	     36.436580	     3.1796551	     24645.070
        539.00	     31.751080	     1.5897404	     24646.290
        540.00	     35.544249	     2.4588105	     24647.490
        541.00	     42.404631	     2.3229833	     24648.701
        542.00	     49.924205	     2.5929701	     24649.910
        543.00	     47.604320	     5.0180373	     24651.120
        544.00	     52.047525	     3.5354188	     24652.330
        545.00	     51.580694	     3.6377645	     24653.540
        546.00	     59.853149	     2.5225585	     24658.160
        547.00	     61.079392	     3.4061755	     24659.370
        548.00	     72.875471	     4.1359811	     24660.580
        549.00	     69.137305	     4.0048062	     24661.790
        550.00	     64.396995	     4.3689191	     24663.000
        551.00	     76.578181	     2.5544704	     24664.210
        552.00	     85.796373	     2.4842827	     24665.420
        553.00	     79.751209	     3.2877432	     24666.630
        554.00	     87.661495	     5.3590958	     24667.840
        555.00	     94.405477	     3.4580596	     24669.050
        556.00	     96.705017	     3.5127414	     24670.260
        557.00	     99.854763	     3.2459576	     24671.470
        558.00	     115.39565	     3.9483450	     24672.680
        559.00	     122.13721	     4.1400366	     24673.890
        560.00	     117.56673	     2.7767806	     24675.100
        561.00	     132.15718	     2.8029070	     24676.310
        562.00	     129.26828	     2.5964316	     24677.520
        563.00	     136.65272	     5.6113940	     24678.740
        564.00	     147.03187	     4.0856083	     24679.950
        565.00	     157.20233	     4.0713071	     24681.150
        566.00	     153.84451	     6.7086652	     24682.360
        567.00	     167.71702	     4.1826626	     24683.570
        568.00	     169.05467	     6.7434390	     24684.780
        569.00	     177.97462	     5.7868079	     24685.990
        570.00	     183.29795	     5.7494501	     24687.200
        571.00	     191.69265	     5.3624947	     24688.410
        572.00	     194.85428	     5.3355912	     24689.620
        573.00	     194.61586	     5.5460155	     24690.840
        574.00	     214.36624	     7.4313295	     24692.040
        575.00	     229.91248	     7.3282329	     24693.250
        576.00	     231.04015	     10.139458	     24694.460
        577.00	     234.37391	     4.8759192	     24695.670
        578.00	     247.72458	     4.0084883	     24696.880
        579.00	     245.63478	     5.6759605	     24698.090
        580.00	     263.89414	     7.7200518	     24699.300
        581.00	     282.01038	     6.0463242	     24700.550
        582.00	     281.58233	     8.2492917	     24701.720
        583.00	     293.85556	     7.2557162	     24702.970
        584.00	     295.05485	     7.4801154	     24704.140
        585.00	     303.55178	     5.2464472	     24705.350
        586.00	     305.81688	     5.8001676	     24706.560
        587.00	     328.27451	     7.3246033	     24707.770
        588.00	     340.99206	     7.0438164	     24708.980
        589.00	     350.40821	     7.5749691	     24710.190
        590.00	     354.56126	     10.443139	     24711.400
        591.00	     345.61495	     7.7875864	     24712.610
        592.00	     367.98254	     8.0171015	     24713.820
        593.00	     373.93976	     6.5176367	     24715.030
        594.00	     379.40430	     4.1950537	     24716.240
        595.00	     376.35416	     8.9629549	     24717.450
        596.00	     388.48112	     7.2897497	     24718.660
        597.00	     416.47827	     6.9330609	     24719.880
        598.00	     409.96685	     9.8958349	     24721.090
        599.00	     430.22737	     9.8906987	     24722.290
        600.00	     422.48714	     8.9425731	     24723.500
        601.00	     423.87374	     6.9217077	     24724.710
        602.00	     423.21571	     9.0593467	     24725.920
        603.00	     454.41572	     8.2704743	     24727.130
        604.00	     464.14301	     12.322282	     24728.340
        605.00	     455.86404	     12.034382	     24729.550
        606.00	     478.43635	     5.0597793	     24730.760
        607.00	     477.28781	     9.8829382	     24731.970
        608.00	     489.23199	     9.6425760	     24733.180
        609.00	     492.95145	     6.9933089	     24734.390
        610.00	     487.12660	     6.5885457	     24735.600
        611.00	     501.21268	     9.6156536	     24736.810
        612.00	     492.33555	     11.163002	     24738.020
        613.00	     495.64908	     12.969276	     24739.230
        614.00	     514.45951	     10.030558	     24740.440
        615.00	     522.05853	     7.2298194	     24741.650
        616.00	     546.92400	     7.0503964	     24742.860
        617.00	     497.56685	     3.5499355	     24744.070
        618.00	     510.57519	     12.891518	     24745.280
        619.00	     542.46017	     8.4874991	     24746.490
        620.00	     534.82507	     6.7179711	     24747.700
        621.00	     540.33646	     15.562457	     24748.910
        622.00	     551.87793	     12.840012	     24750.120
        623.00	     554.97313	     6.5039124	     24751.330
        624.00	     564.10013	     9.3182693	     24752.540
        625.00	     542.49320	     10.061643	     24753.750
        626.00	     545.11221	     7.1318546	     24754.960
        627.00	     546.05078	     9.8538703	     24756.170
        628.00	     549.66344	     12.781086	     24757.380
        629.00	     532.05316	     11.686648	     24758.590
        630.00	     537.33303	     11.272354	     24759.810
        631.00	     563.02816	     12.629899	     24761.010
        632.00	     562.96616	     18.059907	     24762.220
        633.00	     542.95431	     10.248837	     24763.430
        634.00	     562.47184	     10.750421	     24764.650
        635.00	     555.81491	     9.4371359	     24765.849
        636.00	     562.77655	     13.177524	     24767.060
        637.00	     563.58266	     11.076133	     24768.270
        638.00	     549.96944	     8.9841431	     24769.479
        639.00	     542.43824	     14.030433	     24770.689
        640.00	     552.80415	     13.168870	     24771.899
        641.00	     548.95928	     15.031299	     24773.109
        642.00	     563.66839	     11.060755	     24774.319
        643.00	     556.95458	     11.069915	     24775.529
        644.00	     545.89366	     15.134564	     24776.739
        645.00	     531.02227	     8.7566339	     24777.949
        646.00	     527.21298	     5.0038237	     24779.159
        647.00	     539.73904	     10.728033	     24780.369
        648.00	     555.84686	     8.1225923	     24781.579
        649.00	     555.05030	     15.167815	     24782.789
        650.00	     540.87649	     15.436562	     24783.999
        651.00	     537.45702	     10.539958	     24785.209
        652.00	     536.92062	     14.875595	     24786.419
        653.00	     537.48058	     17.629135	     24787.630
        654.00	     547.52821	     12.315314	     24788.839
        655.00	     522.64158	     14.395468	     24790.049
        656.00	     502.32558	     16.236761	     24791.269
        657.00	     538.08145	     12.352332	     24792.469
        658.00	     525.48823	     17.652873	     24793.679
        659.00	     520.14343	     9.7805885	     24794.909
        660.00	     499.90498	     16.718368	     24796.109
        661.00	     521.93947	     14.817886	     24797.309
        662.00	     487.68065	     12.086842	     24798.519
        663.00	     509.02203	     15.134870	     24799.729
        664.00	     482.01490	     13.550426	     24800.939
        665.00	     502.43898	     11.713287	     24802.149
        666.00	     501.89525	     18.097234	     24803.360
        667.00	     513.60506	     20.165126	     24804.569
        668.00	     491.18966	     21.470875	     24805.779
        669.00	     517.85793	     17.471413	     24806.989
        670.00	     484.68669	     9.7514928	     24808.199
        671.00	     482.68207	     14.671555	     24809.409
        672.00	     491.48592	     23.990167	     24810.619
        673.00	     466.17317	     16.357275	     24811.829
        674.00	     455.13652	     14.998580	     24813.039
        675.00	     447.01174	     6.6764058	     24814.249
        676.00	     459.74877	     14.431110	     24815.459
        677.00	     460.20047	     17.250896	     24816.669
        678.00	     489.40491	     13.489846	     24817.879
        679.00	     459.09500	     18.270701	     24819.089
        680.00	     486.53324	     14.396284	     24820.299
        681.00	     502.94302	     15.347761	     24821.509
        682.00	     463.51727	     15.242323	     24822.720
        683.00	     456.52879	     16.571784	     24823.929
        684.00	     425.86839	     15.567571	     24825.139
        685.00	     434.85074	     18.981781	     24826.349
        686.00	     438.67219	     11.802634	     24827.559
        687.00	     436.21379	     11.779504	     24828.769
        688.00	     456.33872	     12.514388	     24829.979
        689.00	     447.54333	     15.782927	     24831.189
        690.00	     461.79885	     23.407300	     24832.399
        691.00	     450.17441	     16.428979	     24833.619
        692.00	     438.62311	     19.834935	     24834.819
        693.00	     414.00539	     15.362813	     24836.029
        694.00	     427.51996	     22.367308	     24837.249
        695.00	     419.60916	     21.538949	     24841.859
        696.00	     395.40986	     22.558936	     24843.069
        697.00	     408.01090	     13.498258	     24844.279
        698.00	     361.69491	     13.509313	     24845.489
        699.00	     376.91419	     26.640544	     24846.699
        700.00	     394.92518	     17.042821	     24847.919
        701.00	     380.07569	     23.217115	     24849.119
        702.00	     386.71452	     19.571046	     24850.329
        703.00	     365.90043	     19.868208	     24851.539
        704.00	     394.15833	     23.693362	     24852.749
        705.00	     384.46324	     21.701299	     24853.959
        706.00	     376.79112	     25.202819	     24855.169
        707.00	     366.87636	     27.493329	     24856.379
        708.00	     384.76932	     24.490268	     24857.589
        709.00	     344.91971	     20.506171	     24858.799
        710.00	     368.42266	     28.791402	     24860.009
        711.00	     398.19091	     13.789570	     24861.219
        712.00	     363.54610	     25.831769	     24862.429
        713.00	     355.84208	     15.571635	     24863.639
        714.00	     360.61526	     32.526637	     24864.849
        715.00	     378.98691	     27.237303	     24866.059
        716.00	     317.27782	     30.151423	     24867.269
        717.00	     328.89759	     33.317508	     24868.479
        718.00	     327.53933	     25.297500	     24869.699
        719.00	     339.17070	     23.524966	     24870.899
        720.00	     329.31000	     23.212263	     24872.109
        721.00	     318.44244	     28.868576	     24873.319
        722.00	     301.36446	     26.614278	     24874.529
        723.00	     302.29295	     31.712098	     24875.739
        724.00	     309.01744	     16.396315	     24876.949
        725.00	     276.71127	     23.938101	     24878.159
        726.00	     280.39970	     20.786292	     24879.369
        727.00	     303.00153	     25.083386	     24880.579
        728.00	     318.89191	     23.792732	     24881.789
        729.00	     320.90861	     25.679651	     24882.999
        730.00	     270.99173	     23.970870	     24884.209
        731.00	     253.56494	     24.679143	     24885.419
        732.00	     269.18579	     32.564056	     24886.629
        733.00	     313.00286	     26.783933	     24887.839
        734.00	     230.99917	     38.530465	     24889.049
        735.00	     223.82075	     36.114863	     24890.259
        736.00	     218.89096	     31.820628	     24891.469
        737.00	     290.88810	     34.251726	     24892.679
        738.00	     210.20216	     32.990402	     24893.889
        739.00	     202.21290	     36.422255	     24895.109
        740.00	     242.27298	     27.696670	     24896.309
        741.00	     299.09723	     27.870542	     24897.519
        742.00	     249.57389	     39.042847	     24898.729
        743.00	     182.39624	     23.421120	     24899.939
        744.00	     233.48680	     27.667063	     24901.149
        745.00	     205.99898	     18.190638	     24902.359
        746.00	     268.29748	     28.761676	     24903.569
        747.00	     168.06181	     32.153621	     24904.789
        748.00	     211.45416	     43.548148	     24905.989
        749.00	     159.74258	     31.825121	     24907.209
        750.00	     221.43387	     51.668801	     24908.419
        751.00	     171.11315	     36.291559	     24909.619
        752.00	     229.61733	     34.358465	     24910.829
        753.00	     162.48254	     34.883291	     24912.049
        754.00	     188.21245	     27.645196	     24913.249
        755.00	     192.95707	     24.292318	     24914.459
        756.00	     230.63701	     35.036780	     24915.669
        757.00	     260.31358	     38.736191	     24916.879
        758.00	     217.54575	     21.854591	     24918.089
        759.00	     113.99607	     40.209754	     24919.299
        760.00	     172.10604	     32.467371	     24920.509
        761.00	     191.65980	     40.530921	     24921.719
        762.00	     193.53704	     47.469521	     24922.929
        763.00	     157.61587	     43.112412	     24924.139
        764.00	     192.25130	     44.885560	     24925.349
        765.00	     239.44046	     42.019004	     24926.558
        766.00	     184.72078	     39.535151	     24927.769
        767.00	     233.02724	     47.060281	     24928.979
        768.00	     129.96577	     50.784075	     24930.198
        769.00	     184.72319	     42.972823	     24931.399
        770.00	     85.251102	     42.360434	     24932.608
        771.00	     192.19623	     44.752794	     24933.819
        772.00	     174.52120	     43.102911	     24935.028
        773.00	     183.16919	     53.481682	     24936.238
        774.00	     98.838086	     34.698038	     24937.448
        775.00	     173.84953	     34.317632	     24938.658
        776.00	     60.318553	     63.305818	     24939.868
        777.00	     54.119439	     52.682064	     24941.078
        778.00	     140.99256	     33.464629	     24942.289
        779.00	     216.14515	     53.182874	     24943.498
        780.00	     45.223935	     39.694131	     24944.708
        781.00	     159.99784	     34.502811	     24945.918
        782.00	     157.90480	     46.989812	     24947.129
        783.00	     72.240447	     40.059806	     24948.339
        784.00	     72.972161	     42.997064	     24949.548
        785.00	     43.864146	     59.179195	     24950.758
        786.00	     119.23242	     35.811091	     24951.968
        787.00	     120.39511	     48.237586	     24953.178
        788.00	     140.58963	     73.552466	     24954.388
        789.00	    -8.4753235	     37.680263	     24955.598
        790.00	     88.549510	     61.761266	     24956.808
        791.00	     112.94327	     77.158840	     24958.018
        792.00	     102.02700	     43.098586	     24959.228
        793.00	     82.945600	     64.355781	     24960.438
        794.00	     43.200000	     35.876331	     24961.648
        795.00	     114.37655	     50.996479	     24962.858
        796.00	     73.579130	     33.106897	     24964.069
        797.00	     75.534562	     44.506897	     24965.278
        798.00	     128.03498	     60.826901	     24966.488
        799.00	     20.786320	     49.960096	     24967.698
        800.00	     62.811089	     38.673005	     24968.908
