Title=200311_em_0,1MNaOH_2,0uM_AT532
Comment=
Signature=ISS_Experiment_Ver_1_0
Timestamp=Wed Mar 11 19:14:31 2020
Product=Vinci2
SoftwareVersion=BETA.2.4
BuildNumber=234
RealTimeStart=29901.348954

AcquisitionType=Photon Counting
AcquisitionFormat=L
AcquisitionSide=Right
Detector Gains=(0.0, 0.0)

Measurable=Intensity
MaxIterations=10

RightEmissionWavelengthBandwidth=8.0
ExcitationWavelengthBandwidth=8.0
Visualization=Y:Intensity,X:EmissionWavelength,PlotType:2D


EmissionWavelength=type:numeric,unit:nm,from:400.0,to:800.0,step:1.0
ExcitationWavelength=type:numeric,unit:nm,fixed:520.0

Space=EmissionWavelength
Columns=EmissionWavelength,Intensity,IntensityStdError,RealTime
[Data]
        400.00	     20.955453	     1.8858204	     29910.984
        401.00	     17.327099	     1.8919000	     29912.464
        402.00	     23.941121	     1.6729790	     29913.675
        403.00	     16.889314	     2.1074049	     29914.894
        404.00	     21.085781	     1.9704151	     29916.094
        405.00	     19.693654	     1.9430330	     29917.304
        406.00	     20.547582	     1.2098767	     29918.514
        407.00	     20.976230	     1.3019073	     29919.724
        408.00	     19.589212	     1.1560853	     29920.934
        409.00	     15.271658	     1.4838797	     29922.144
        410.00	     22.069583	     1.8593032	     29923.354
        411.00	     20.033438	     1.2204000	     29924.564
        412.00	     22.992783	     1.9622858	     29925.774
        413.00	     20.505267	     1.4738984	     29926.984
        414.00	     22.216241	     1.4277234	     29928.194
        415.00	     23.389858	     1.0881479	     29929.404
        416.00	     23.073740	     1.6426506	     29930.624
        417.00	     23.889624	     1.4938544	     29931.824
        418.00	     25.640152	     1.4143962	     29933.044
        419.00	     23.389552	     1.9426349	     29934.244
        420.00	     23.779092	     1.7400611	     29935.454
        421.00	     25.121444	     1.9043700	     29936.664
        422.00	     25.632614	    0.92038110	     29937.874
        423.00	     28.638102	     1.7055564	     29939.094
        424.00	     27.959463	     2.2695753	     29940.294
        425.00	     26.923108	     1.7648858	     29941.504
        426.00	     27.196367	     1.3058839	     29942.714
        427.00	     30.093329	     1.3404490	     29943.924
        428.00	     31.663697	     1.3502186	     29945.134
        429.00	     31.732475	     1.6552078	     29946.344
        430.00	     32.104808	     2.4907599	     29947.554
        431.00	     31.636897	     2.1474065	     29948.764
        432.00	     33.274333	     1.7641564	     29949.974
        433.00	     35.859096	     1.3187252	     29951.184
        434.00	     36.915043	     2.4147523	     29952.394
        435.00	     37.168657	    0.86052981	     29953.604
        436.00	     39.392083	     1.3258757	     29954.814
        437.00	     34.859235	     1.9656667	     29956.024
        438.00	     41.538962	     1.5365181	     29957.234
        439.00	     41.068227	     2.2098989	     29958.444
        440.00	     40.148064	     3.0328156	     29959.654
        441.00	     41.528257	     1.9479902	     29960.864
        442.00	     39.138021	     2.1850653	     29962.074
        443.00	     45.977244	     1.5346221	     29963.284
        444.00	     45.762995	     1.7646654	     29964.494
        445.00	     44.642504	     1.8166097	     29965.704
        446.00	     41.626248	     2.7627882	     29966.914
        447.00	     46.798545	     2.4140125	     29968.124
        448.00	     50.231260	     1.5608499	     29969.334
        449.00	     46.828858	     2.2591696	     29970.544
        450.00	     45.906959	     2.6846479	     29971.754
        451.00	     47.033778	     1.3990577	     29972.964
        452.00	     50.652688	     2.2992094	     29974.174
        453.00	     48.479171	     3.0127049	     29975.384
        454.00	     49.797816	     1.7661467	     29976.594
        455.00	     50.154533	    0.86874667	     29977.804
        456.00	     50.190683	     1.9463263	     29979.014
        457.00	     53.962930	     2.4277104	     29980.224
        458.00	     52.686824	     2.5192422	     29981.434
        459.00	     53.459176	     1.8093332	     29982.644
        460.00	     51.356135	     1.9513391	     29983.864
        461.00	     55.510212	     2.6270512	     29985.064
        462.00	     55.785521	     2.7209546	     29986.274
        463.00	     55.032654	     1.5718453	     29987.484
        464.00	     61.579669	     1.7050952	     29988.694
        465.00	     59.432311	     1.9565560	     29989.904
        466.00	     62.161077	     1.6473784	     29991.114
        467.00	     62.559268	     2.0035352	     29992.324
        468.00	     62.003975	     2.3695563	     29993.534
        469.00	     65.863782	     2.1957548	     29994.744
        470.00	     63.740228	     3.0442307	     29995.954
        471.00	     67.937718	     3.7036824	     29997.164
        472.00	     64.148966	     4.0281751	     29998.374
        473.00	     66.737485	     2.7734472	     29999.584
        474.00	     74.411022	     2.2729872	     30000.804
        475.00	     77.616617	     1.9658160	     30002.004
        476.00	     74.388862	     1.7934505	     30003.214
        477.00	     82.489770	     2.6500154	     30004.424
        478.00	     80.522741	     1.9492312	     30005.634
        479.00	     89.054826	     1.4577350	     30006.844
        480.00	     93.784966	     2.0815732	     30008.054
        481.00	     99.850001	     2.5006368	     30009.264
        482.00	     109.49029	     3.6766768	     30010.474
        483.00	     115.13448	     2.2921369	     30011.684
        484.00	     122.47143	     3.2677570	     30012.894
        485.00	     127.01696	     3.2853376	     30014.104
        486.00	     145.48973	     4.1637975	     30015.314
        487.00	     155.73710	     4.0373820	     30016.524
        488.00	     167.78350	     3.0701104	     30017.734
        489.00	     196.10805	     4.2687413	     30018.944
        490.00	     216.85612	     2.6617746	     30020.154
        491.00	     248.57845	     3.4367540	     30021.364
        492.00	     282.32209	     4.0160829	     30022.574
        493.00	     310.50397	     4.0614549	     30023.784
        494.00	     361.71393	     3.2280403	     30024.994
        495.00	     412.32092	     7.4805558	     30026.204
        496.00	     466.28530	     6.1463998	     30027.414
        497.00	     534.62579	     6.1971203	     30028.624
        498.00	     627.03723	     5.2858133	     30029.834
        499.00	     739.02017	     5.8744150	     30031.044
        500.00	     898.80511	     7.3985841	     30032.254
        501.00	     1051.1490	     6.6025899	     30033.464
        502.00	     1249.9050	     14.203811	     30034.674
        503.00	     1480.1706	     9.8167779	     30035.884
        504.00	     1775.9807	     11.256210	     30037.094
        505.00	     2145.1467	     14.611055	     30038.304
        506.00	     2593.9318	     20.943887	     30039.514
        507.00	     3108.9190	     14.649573	     30040.724
        508.00	     3765.9051	     13.422488	     30041.934
        509.00	     4542.8983	     19.388869	     30043.144
        510.00	     5518.5101	     21.968115	     30044.354
        511.00	     6707.0586	     22.096705	     30045.564
        512.00	     8192.8059	     24.359155	     30046.774
        513.00	     9905.3166	     27.831060	     30047.984
        514.00	     11945.266	     26.076069	     30049.194
        515.00	     14363.083	     27.373468	     30050.404
        516.00	     17294.758	     53.691499	     30051.614
        517.00	     20801.951	     13.841446	     30052.823
        518.00	     24700.336	     32.918312	     30054.033
        519.00	     29269.026	     57.396422	     30055.244
        520.00	     34211.814	     53.289987	     30056.454
        521.00	     39856.328	     34.114933	     30057.664
        522.00	     46096.063	     62.475987	     30058.874
        523.00	     52643.678	     47.050364	     30060.083
        524.00	     59840.026	     61.664181	     30061.293
        525.00	     66927.626	     73.050795	     30062.504
        526.00	     74739.465	     65.191417	     30063.714
        527.00	     82650.539	     66.326856	     30064.923
        528.00	     90798.931	     68.966927	     30066.133
        529.00	     98285.333	     84.051682	     30067.343
        530.00	     105766.14	     60.391451	     30068.553
        531.00	     112695.92	     99.185491	     30069.763
        532.00	     119144.52	     43.828603	     30070.973
        533.00	     125309.05	     51.116089	     30072.183
        534.00	     130484.43	     74.304712	     30073.393
        535.00	     135436.85	     106.53122	     30074.603
        536.00	     139905.51	     64.253012	     30075.813
        537.00	     143691.05	     68.182050	     30077.034
        538.00	     146789.52	     36.238452	     30078.233
        539.00	     149502.52	     41.176309	     30079.443
        540.00	     151862.12	     38.581338	     30080.653
        541.00	     153880.63	     57.313586	     30081.863
        542.00	     155393.67	     43.529393	     30083.073
        543.00	     156540.13	     92.393917	     30084.283
        544.00	     157592.55	     78.971844	     30085.493
        545.00	     158154.55	     39.117178	     30086.703
        546.00	     158648.28	     50.673886	     30091.324
        547.00	     158664.68	     85.869894	     30092.533
        548.00	     158659.13	     57.279603	     30093.743
        549.00	     158465.49	     70.519442	     30094.953
        550.00	     157872.35	     82.245251	     30096.163
        551.00	     156863.63	     68.995723	     30097.373
        552.00	     155561.09	     89.110820	     30098.623
        553.00	     154371.63	     83.592970	     30099.794
        554.00	     152478.33	     112.43742	     30101.003
        555.00	     150663.24	     91.751797	     30102.213
        556.00	     148370.40	     79.021722	     30103.423
        557.00	     145903.04	     89.419863	     30104.633
        558.00	     143412.55	     113.70967	     30105.843
        559.00	     140698.79	     126.97484	     30107.053
        560.00	     137607.63	     87.694428	     30108.263
        561.00	     134588.21	     87.750765	     30109.473
        562.00	     131351.89	     104.00998	     30110.684
        563.00	     127931.81	     95.975269	     30111.893
        564.00	     124726.70	     81.941946	     30113.103
        565.00	     121275.12	     96.676071	     30114.313
        566.00	     118355.98	     100.47783	     30115.523
        567.00	     115076.98	     52.485124	     30116.743
        568.00	     111791.66	     122.58288	     30117.944
        569.00	     109032.13	     139.60281	     30119.153
        570.00	     105788.99	     116.95933	     30120.363
        571.00	     102680.13	     71.414616	     30121.573
        572.00	     100230.77	     74.571325	     30122.783
        573.00	     97634.890	     57.756456	     30123.994
        574.00	     95257.071	     75.046618	     30125.213
        575.00	     92870.368	     97.865819	     30126.423
        576.00	     90741.719	     113.25122	     30127.623
        577.00	     88857.896	     90.509316	     30128.833
        578.00	     87010.111	     72.250761	     30130.043
        579.00	     85438.760	     118.11421	     30131.253
        580.00	     84068.563	     77.411434	     30132.463
        581.00	     82335.381	     98.218648	     30133.673
        582.00	     80643.817	     72.779124	     30134.883
        583.00	     79597.629	     54.784017	     30136.093
        584.00	     78045.649	     83.309761	     30137.313
        585.00	     76725.686	     84.336609	     30138.513
        586.00	     75686.098	     124.56285	     30139.723
        587.00	     74267.974	     148.09279	     30140.933
        588.00	     72888.718	     62.441217	     30142.143
        589.00	     71511.604	     92.743568	     30143.353
        590.00	     70272.517	     52.939363	     30144.563
        591.00	     68776.694	     75.770534	     30145.773
        592.00	     67294.714	     43.844744	     30146.983
        593.00	     65776.343	     94.929555	     30148.193
        594.00	     64374.144	     103.34261	     30149.403
        595.00	     62943.939	     62.215176	     30150.613
        596.00	     61414.712	     118.81660	     30151.823
        597.00	     59839.056	     57.016914	     30153.033
        598.00	     58255.083	     73.599396	     30154.243
        599.00	     56518.155	     51.984994	     30155.453
        600.00	     54984.978	     75.184082	     30156.663
        601.00	     53386.995	     54.044375	     30157.873
        602.00	     51776.260	     104.35085	     30159.083
        603.00	     49964.185	     63.043072	     30160.293
        604.00	     48271.494	     76.780178	     30161.503
        605.00	     46695.413	     75.679104	     30162.723
        606.00	     45107.955	     92.914843	     30163.923
        607.00	     43443.546	     102.89065	     30165.133
        608.00	     41938.463	     69.425580	     30166.343
        609.00	     40387.825	     56.244719	     30167.553
        610.00	     38961.363	     91.539341	     30168.763
        611.00	     37448.306	     83.916956	     30169.973
        612.00	     35979.427	     64.399730	     30171.183
        613.00	     34599.525	     52.711649	     30172.393
        614.00	     33326.792	     70.123623	     30173.603
        615.00	     31973.305	     49.080789	     30174.813
        616.00	     30663.849	     65.428322	     30176.023
        617.00	     29402.922	     44.714707	     30177.233
        618.00	     28376.548	     51.336633	     30178.443
        619.00	     27180.981	     86.599030	     30179.653
        620.00	     26246.405	     56.630727	     30180.863
        621.00	     25074.017	     55.440602	     30182.073
        622.00	     24188.279	     70.459990	     30183.283
        623.00	     23155.530	     54.402951	     30184.493
        624.00	     22324.206	     74.253517	     30185.703
        625.00	     21528.275	     68.111032	     30186.913
        626.00	     20649.619	     66.896663	     30188.123
        627.00	     19989.015	     53.493727	     30189.333
        628.00	     19281.564	     39.548681	     30190.553
        629.00	     18551.028	     46.387892	     30191.753
        630.00	     17975.350	     46.806620	     30192.963
        631.00	     17302.056	     55.017585	     30194.173
        632.00	     16719.417	     56.979912	     30195.383
        633.00	     16258.042	     49.127159	     30196.593
        634.00	     15626.599	     55.783370	     30197.803
        635.00	     15089.499	     41.107041	     30199.013
        636.00	     14614.241	     42.145956	     30200.223
        637.00	     14121.678	     58.189847	     30201.433
        638.00	     13759.237	     38.693457	     30202.643
        639.00	     13347.182	     48.032798	     30203.853
        640.00	     12915.161	     63.065996	     30205.063
        641.00	     12649.750	     36.409591	     30206.273
        642.00	     12208.958	     55.752055	     30207.483
        643.00	     11729.672	     52.844789	     30208.693
        644.00	     11504.299	     55.278408	     30209.903
        645.00	     11110.091	     38.821634	     30211.113
        646.00	     10828.671	     49.277806	     30212.322
        647.00	     10484.212	     52.580326	     30213.533
        648.00	     10230.805	     66.434899	     30214.743
        649.00	     9944.1244	     54.021271	     30215.953
        650.00	     9647.0283	     54.863630	     30217.163
        651.00	     9438.8749	     68.744135	     30218.373
        652.00	     9062.6309	     23.563521	     30219.582
        653.00	     8793.5905	     32.324380	     30220.793
        654.00	     8595.0484	     53.720771	     30222.003
        655.00	     8225.9349	     54.396841	     30223.213
        656.00	     8085.3688	     38.352085	     30224.423
        657.00	     7859.1416	     33.731367	     30225.632
        658.00	     7542.5233	     38.795262	     30226.842
        659.00	     7387.9070	     46.369247	     30228.063
        660.00	     7047.9392	     43.506224	     30229.262
        661.00	     6847.1588	     39.422881	     30230.472
        662.00	     6614.3144	     35.545057	     30231.693
        663.00	     6492.5002	     34.920684	     30232.893
        664.00	     6280.7360	     39.022935	     30234.112
        665.00	     6051.0011	     39.835898	     30235.312
        666.00	     5917.6850	     24.536859	     30236.522
        667.00	     5677.8126	     40.447581	     30237.732
        668.00	     5540.6313	     41.336264	     30238.942
        669.00	     5324.1984	     35.339317	     30240.152
        670.00	     5117.7620	     25.003395	     30241.362
        671.00	     4980.4865	     45.278290	     30242.572
        672.00	     4812.7302	     33.431981	     30243.782
        673.00	     4631.1788	     53.975513	     30244.992
        674.00	     4504.0401	     37.053642	     30246.202
        675.00	     4344.2452	     36.686757	     30247.412
        676.00	     4182.0521	     22.100616	     30248.622
        677.00	     4076.8408	     37.373671	     30249.832
        678.00	     3868.1845	     35.047946	     30251.042
        679.00	     3796.2274	     22.938514	     30252.262
        680.00	     3641.8811	     24.133736	     30253.462
        681.00	     3559.8738	     39.240136	     30254.672
        682.00	     3458.0152	     29.963927	     30255.882
        683.00	     3338.6813	     35.309547	     30257.093
        684.00	     3228.9666	     37.703724	     30258.302
        685.00	     3055.8636	     23.471571	     30259.512
        686.00	     2980.5965	     52.684222	     30260.722
        687.00	     2863.3318	     33.206745	     30261.932
        688.00	     2845.5950	     23.753803	     30263.182
        689.00	     2752.6255	     22.100264	     30264.352
        690.00	     2630.4344	     40.420952	     30265.562
        691.00	     2591.0225	     32.256113	     30266.772
        692.00	     2453.0088	     43.427439	     30267.982
        693.00	     2428.0097	     33.363876	     30269.192
        694.00	     2333.9863	     42.443099	     30270.402
        695.00	     2326.4972	     27.401010	     30275.022
        696.00	     2264.5376	     14.654590	     30276.232
        697.00	     2159.1918	     24.735589	     30277.442
        698.00	     2126.7381	     50.436236	     30278.652
        699.00	     2028.7899	     32.506695	     30279.862
        700.00	     1946.4342	     39.706830	     30281.072
        701.00	     1912.1182	     30.010102	     30282.282
        702.00	     1833.8553	     39.405385	     30283.493
        703.00	     1854.1640	     36.564030	     30284.702
        704.00	     1793.5613	     27.928876	     30285.912
        705.00	     1774.9256	     23.314960	     30287.122
        706.00	     1665.8967	     40.372757	     30288.332
        707.00	     1685.1122	     47.023320	     30289.542
        708.00	     1600.8472	     30.762803	     30290.752
        709.00	     1641.1992	     31.097445	     30291.962
        710.00	     1531.7298	     29.216793	     30293.172
        711.00	     1482.3290	     45.143018	     30294.382
        712.00	     1469.1998	     31.278396	     30295.592
        713.00	     1369.7282	     27.760123	     30296.802
        714.00	     1407.2645	     35.917144	     30298.012
        715.00	     1376.0187	     16.407149	     30299.222
        716.00	     1417.0106	     30.854507	     30300.432
        717.00	     1350.5396	     42.046017	     30301.642
        718.00	     1271.1947	     27.781337	     30302.852
        719.00	     1268.8331	     36.944056	     30304.062
        720.00	     1242.8270	     23.560197	     30305.272
        721.00	     1199.7211	     32.407448	     30306.482
        722.00	     1137.0272	     19.535135	     30307.692
        723.00	     1160.2715	     25.899091	     30308.902
        724.00	     1129.0086	     30.786643	     30310.112
        725.00	     1049.3145	     50.565274	     30311.322
        726.00	     1084.7606	     23.247424	     30312.532
        727.00	     1081.9407	     36.006727	     30313.742
        728.00	     1051.1622	     47.426155	     30314.952
        729.00	     1021.0049	     18.480976	     30316.162
        730.00	     1018.3065	     32.260920	     30317.372
        731.00	     951.54187	     31.735616	     30318.582
        732.00	     993.52605	     35.336563	     30319.792
        733.00	     935.43821	     39.538375	     30321.002
        734.00	     870.47249	     28.841360	     30322.212
        735.00	     922.59809	     36.773624	     30323.422
        736.00	     895.01164	     47.824265	     30324.642
        737.00	     912.90242	     37.202176	     30325.842
        738.00	     848.04233	     39.005125	     30327.052
        739.00	     885.16651	     48.742847	     30328.262
        740.00	     836.58521	     29.954273	     30329.472
        741.00	     802.32609	     36.802436	     30330.682
        742.00	     746.91969	     44.647203	     30331.892
        743.00	     703.07124	     31.817422	     30333.102
        744.00	     800.52619	     39.791892	     30334.312
        745.00	     691.19931	     37.253454	     30335.522
        746.00	     734.01244	     45.579754	     30336.742
        747.00	     723.77337	     47.352660	     30337.942
        748.00	     615.36083	     48.783021	     30339.152
        749.00	     681.86417	     32.257132	     30340.362
        750.00	     627.39596	     51.212141	     30341.572
        751.00	     687.98591	     49.262470	     30342.782
        752.00	     686.80641	     48.101852	     30343.992
        753.00	     537.12380	     35.391326	     30345.202
        754.00	     588.75370	     43.241130	     30346.412
        755.00	     539.64367	     49.822053	     30347.622
        756.00	     549.98055	     33.871666	     30348.832
        757.00	     596.71047	     50.462751	     30350.042
        758.00	     600.73547	     46.959517	     30351.252
        759.00	     512.98232	     40.166587	     30352.462
        760.00	     562.17531	     37.565217	     30353.672
        761.00	     489.47846	     40.134050	     30354.882
        762.00	     511.65631	     42.107305	     30356.092
        763.00	     464.64454	     37.377927	     30357.302
        764.00	     532.84467	     44.710907	     30358.512
        765.00	     487.88244	     52.819909	     30359.722
        766.00	     515.27376	     48.186916	     30360.932
        767.00	     459.90600	     26.800585	     30362.142
        768.00	     483.79604	     35.541448	     30363.352
        769.00	     476.25911	     29.544685	     30364.562
        770.00	     472.69827	     41.678127	     30365.772
        771.00	     519.37979	     51.334387	     30366.982
        772.00	     407.43239	     28.933513	     30368.192
        773.00	     461.53385	     52.258823	     30369.402
        774.00	     376.77874	     49.689256	     30370.612
        775.00	     337.63055	     37.456337	     30371.821
        776.00	     388.34304	     65.951269	     30373.042
        777.00	     440.49113	     40.928564	     30374.242
        778.00	     378.74473	     46.420285	     30375.452
        779.00	     351.84793	     37.251917	     30376.662
        780.00	     422.56115	     31.688845	     30377.872
        781.00	     391.42328	     36.576390	     30379.082
        782.00	     333.83526	     45.427212	     30380.292
        783.00	     388.93089	     48.050225	     30381.501
        784.00	     333.90292	     36.047266	     30382.712
        785.00	     340.50472	     53.093671	     30383.962
        786.00	     358.44714	     49.300437	     30385.132
        787.00	     361.94252	     37.775869	     30386.341
        788.00	     338.48482	     66.476397	     30387.551
        789.00	     341.32439	     59.473842	     30388.762
        790.00	     313.03029	     24.597086	     30389.971
        791.00	     355.30070	     56.694511	     30391.181
        792.00	     208.00854	     36.554205	     30392.392
        793.00	     265.58543	     41.206949	     30393.601
        794.00	     278.40000	     70.855095	     30394.822
        795.00	     268.46717	     75.398666	     30396.022
        796.00	     370.24392	     49.660345	     30397.231
        797.00	     322.73858	     44.215284	     30398.441
        798.00	     270.78662	     44.218073	     30399.651
        799.00	     202.84581	     60.925420	     30400.861
        800.00	     302.05782	     58.528904	     30402.071
