Title=200311_em_0,1MNaOH_2,0uM_ST520
Comment=
Signature=ISS_Experiment_Ver_1_0
Timestamp=Wed Mar 11 18:49:12 2020
Product=Vinci2
SoftwareVersion=BETA.2.4
BuildNumber=234
RealTimeStart=28382.5482623

AcquisitionType=Photon Counting
AcquisitionFormat=L
AcquisitionSide=Right
Detector Gains=(0.0, 0.0)

Measurable=Intensity
MaxIterations=10

RightEmissionWavelengthBandwidth=8.0
ExcitationWavelengthBandwidth=8.0
Visualization=Y:Intensity,X:EmissionWavelength,PlotType:2D


EmissionWavelength=type:numeric,unit:nm,from:400.0,to:800.0,step:1.0
ExcitationWavelength=type:numeric,unit:nm,fixed:520.0

Space=EmissionWavelength
Columns=EmissionWavelength,Intensity,IntensityStdError,RealTime
[Data]
        400.00	     0.0000000	     1.1241359	     28392.815
        401.00	     2.4129250	     1.6199755	     28394.295
        402.00	     2.6371924	     1.1523242	     28395.505
        403.00	    0.11427141	     1.5087865	     28396.715
        404.00	     3.6512174	     1.3922552	     28397.925
        405.00	     2.7352297	    0.84606192	     28399.135
        406.00	     1.3637775	     1.4474963	     28400.345
        407.00	     1.7026161	     1.3958324	     28401.555
        408.00	     3.0608143	    0.76046543	     28402.765
        409.00	   -0.45316492	     1.8896971	     28403.975
        410.00	     1.3595225	    0.80995862	     28405.185
        411.00	     2.3795373	     1.3872602	     28406.395
        412.00	   -0.90701312	     1.1830834	     28407.605
        413.00	     1.7012113	     1.6911000	     28408.814
        414.00	     4.8789497	     1.5451292	     28410.025
        415.00	   -0.45461338	    0.93106379	     28411.235
        416.00	     1.3653100	     1.4979285	     28412.445
        417.00	     4.6686109	     1.3837099	     28413.655
        418.00	     1.4827490	     1.2430594	     28414.864
        419.00	     1.4846883	    0.82443631	     28416.075
        420.00	     0.0000000	     1.5615845	     28417.285
        421.00	     1.2629611	     1.0190586	     28418.505
        422.00	    0.57523819	     1.4043354	     28419.705
        423.00	    0.80573439	     1.4278990	     28420.914
        424.00	    0.92123436	    0.92760976	     28422.125
        425.00	     1.2721400	     1.8763052	     28423.335
        426.00	     1.1582780	     1.0331136	     28424.545
        427.00	   -0.11628025	     1.4916339	     28425.764
        428.00	   -0.93197049	     1.2401979	     28426.965
        429.00	     1.1674935	     1.6765720	     28428.174
        430.00	     1.7588463	     1.6214584	     28429.385
        431.00	     2.7070262	     1.3298522	     28430.594
        432.00	     1.2988561	     1.2377851	     28431.804
        433.00	     1.1842502	     1.2458102	     28433.014
        434.00	   -0.59387135	     1.2015198	     28434.225
        435.00	     1.0728605	     1.4978783	     28435.434
        436.00	    0.83609637	     1.7193982	     28436.644
        437.00	    0.35962072	     1.4234198	     28437.855
        438.00	     1.4456715	     1.7225667	     28439.064
        439.00	     3.2632199	     1.5314233	     28440.275
        440.00	     1.3350323	     1.7860095	     28441.484
        441.00	     2.4371043	    0.90461482	     28442.695
        442.00	     2.4476561	     1.3749545	     28443.904
        443.00	     2.9519900	     1.2408810	     28445.114
        444.00	     4.8132600	     1.3273297	     28446.324
        445.00	     1.3610520	     1.3101057	     28447.544
        446.00	     3.2326238	     1.4260555	     28448.744
        447.00	    0.24972543	     1.3422339	     28449.954
        448.00	     1.5076916	     1.6647099	     28451.164
        449.00	   -0.88403992	     1.6990773	     28452.374
        450.00	     1.3957340	     1.7789044	     28453.584
        451.00	     1.6534319	     1.4983143	     28454.794
        452.00	     1.5357055	     1.7169710	     28456.004
        453.00	     0.0000000	     1.5750771	     28457.214
        454.00	   -0.51630706	     1.8970333	     28458.424
        455.00	     3.7602933	     2.0277410	     28459.634
        456.00	     1.4347649	     1.9584289	     28460.854
        457.00	    -1.7035408	     1.5899954	     28462.054
        458.00	     4.6124033	     1.1957684	     28463.264
        459.00	    -2.1182437	     1.4609655	     28464.474
        460.00	     2.1243489	     2.1789684	     28465.684
        461.00	     4.5390745	     2.4680861	     28466.894
        462.00	     1.0759020	     1.7500642	     28468.104
        463.00	     2.2941518	     1.9633579	     28469.314
        464.00	     1.3569782	     1.3233919	     28470.524
        465.00	     2.7337769	     1.9839512	     28471.744
        466.00	     2.0592229	     2.4900614	     28472.944
        467.00	    -1.6542777	     1.3662559	     28474.154
        468.00	     2.2203751	     1.3116354	     28475.364
        469.00	     5.2936204	     1.8597310	     28476.574
        470.00	     1.3984254	     1.9973509	     28477.784
        471.00	    0.28201627	     1.7076933	     28478.994
        472.00	   -0.42501524	     1.7189765	     28480.204
        473.00	     5.2672503	     1.8891899	     28481.414
        474.00	     1.4315318	     1.0189718	     28482.624
        475.00	     1.8727098	     2.1307315	     28483.834
        476.00	   -0.28956350	    0.81330180	     28485.044
        477.00	     3.4928625	     1.1843284	     28486.254
        478.00	     5.2629243	     1.9148158	     28487.464
        479.00	     4.8511213	     2.0609661	     28488.674
        480.00	     3.9952573	     1.2909369	     28489.884
        481.00	     2.6793381	     1.6031864	     28491.094
        482.00	     5.5434329	     1.7902240	     28492.304
        483.00	     3.0147809	     1.8365711	     28493.514
        484.00	    0.15161108	     1.6052965	     28494.724
        485.00	     4.2705031	     1.4593631	     28495.934
        486.00	     4.7535642	    0.89849498	     28497.144
        487.00	     6.6251439	     1.5821174	     28498.354
        488.00	     4.8124431	     2.1266572	     28499.564
        489.00	     4.6848555	     1.3332316	     28500.774
        490.00	     5.8066844	     2.0294273	     28501.994
        491.00	     5.8440734	     1.5304567	     28503.194
        492.00	     6.6622809	     1.7214933	     28504.404
        493.00	     7.6636109	     2.2729159	     28505.614
        494.00	     11.715821	     1.6129115	     28506.824
        495.00	     7.8957813	     1.4422661	     28508.034
        496.00	     7.9256208	     1.9890469	     28509.244
        497.00	     9.4832393	     1.9222844	     28510.454
        498.00	     13.140204	     2.4801464	     28511.664
        499.00	     13.145572	     2.7202613	     28512.874
        500.00	     18.304169	     1.2250073	     28514.084
        501.00	     19.741417	     2.1267501	     28515.294
        502.00	     24.756859	     1.6286669	     28516.504
        503.00	     21.432889	     2.9508581	     28517.714
        504.00	     26.256251	     1.9767621	     28518.924
        505.00	     29.841548	     3.4567043	     28520.134
        506.00	     37.100433	     2.8343988	     28521.344
        507.00	     47.960555	     4.2254103	     28522.554
        508.00	     54.663605	     3.5188091	     28523.764
        509.00	     56.168480	     2.1464591	     28524.974
        510.00	     71.560174	     2.7851547	     28526.184
        511.00	     83.354629	     3.5941417	     28527.394
        512.00	     106.05901	     3.3168946	     28528.604
        513.00	     123.61532	     4.6724436	     28529.814
        514.00	     156.09470	     4.0631384	     28531.024
        515.00	     188.13150	     3.6748719	     28532.234
        516.00	     272.93659	     5.6495382	     28533.444
        517.00	     414.97465	     7.5537052	     28534.654
        518.00	     638.34735	     8.5276798	     28535.864
        519.00	     871.61956	     10.282243	     28537.074
        520.00	     1080.4300	     11.511844	     28538.284
        521.00	     1211.8299	     11.541656	     28539.494
        522.00	     1216.7374	     6.5163537	     28540.704
        523.00	     1146.2815	     6.6737450	     28541.914
        524.00	     1042.3759	     11.223997	     28543.124
        525.00	     997.07789	     5.8016549	     28544.334
        526.00	     1056.8210	     6.0223382	     28545.544
        527.00	     1158.3541	     8.6582467	     28546.754
        528.00	     1277.7808	     10.973703	     28547.964
        529.00	     1424.4640	     8.6566413	     28549.174
        530.00	     1588.2125	     11.770138	     28550.384
        531.00	     1740.5516	     9.3060671	     28551.594
        532.00	     1918.6914	     12.573692	     28552.804
        533.00	     2088.9307	     13.324537	     28554.014
        534.00	     2254.3991	     13.061846	     28555.224
        535.00	     2399.9605	     11.817965	     28556.434
        536.00	     2555.8129	     13.132792	     28557.644
        537.00	     2688.6908	     11.828576	     28558.864
        538.00	     2796.9072	     10.648968	     28560.064
        539.00	     2900.7212	     14.149060	     28561.274
        540.00	     3005.9550	     16.810221	     28562.484
        541.00	     3105.0374	     10.498030	     28563.694
        542.00	     3143.1609	     19.024011	     28564.904
        543.00	     3166.4872	     13.276870	     28566.114
        544.00	     3168.1102	     12.431227	     28567.324
        545.00	     3124.5913	     10.150771	     28568.534
        546.00	     3136.8952	     14.708002	     28573.154
        547.00	     3108.6709	     15.215161	     28574.364
        548.00	     3072.2318	     11.045552	     28575.574
        549.00	     3029.8671	     8.3324090	     28576.784
        550.00	     2945.1224	     14.932023	     28577.994
        551.00	     2845.9890	     16.940541	     28579.204
        552.00	     2766.1776	     21.536159	     28580.414
        553.00	     2689.1241	     24.064044	     28581.624
        554.00	     2586.4550	     14.244919	     28582.843
        555.00	     2493.1649	     15.775953	     28584.044
        556.00	     2378.7834	     15.314298	     28585.254
        557.00	     2302.7344	     13.755066	     28586.464
        558.00	     2221.8681	     10.758846	     28587.673
        559.00	     2149.6921	     15.852962	     28588.884
        560.00	     2039.9573	     14.585324	     28590.093
        561.00	     1971.8497	     17.365044	     28591.303
        562.00	     1873.5033	     13.855314	     28592.513
        563.00	     1788.7911	     12.395003	     28593.723
        564.00	     1706.7003	     13.227983	     28594.934
        565.00	     1626.9610	     13.949479	     28596.143
        566.00	     1563.8823	     8.1522769	     28597.353
        567.00	     1477.8974	     10.740026	     28598.563
        568.00	     1433.6600	     12.203727	     28599.773
        569.00	     1387.2011	     10.496880	     28600.993
        570.00	     1322.2739	     15.310051	     28602.193
        571.00	     1280.3313	     12.920915	     28603.413
        572.00	     1218.2392	     13.873095	     28604.613
        573.00	     1163.4469	     8.2344643	     28605.823
        574.00	     1137.3486	     9.4653294	     28607.033
        575.00	     1114.2880	     13.411196	     28608.243
        576.00	     1076.2432	     12.053465	     28609.453
        577.00	     1044.8060	     8.8101103	     28610.663
        578.00	     1005.1051	     12.720436	     28611.873
        579.00	     987.84220	     8.3762766	     28613.083
        580.00	     964.68854	     9.6344159	     28614.293
        581.00	     929.99149	     10.947902	     28615.503
        582.00	     915.69142	     7.6692027	     28616.713
        583.00	     892.81056	     8.5473289	     28617.924
        584.00	     881.81699	     9.7729949	     28619.133
        585.00	     854.31271	     8.8780614	     28620.343
        586.00	     843.62249	     13.530028	     28621.553
        587.00	     814.52248	     8.8089077	     28622.763
        588.00	     790.74571	     11.549441	     28623.973
        589.00	     774.81793	     10.980899	     28625.183
        590.00	     764.29974	     11.493874	     28626.393
        591.00	     734.09880	     11.359242	     28627.603
        592.00	     732.02510	     10.670989	     28628.813
        593.00	     710.88817	     8.5077850	     28630.023
        594.00	     689.19197	     6.9775452	     28631.234
        595.00	     669.43620	     9.8367803	     28632.443
        596.00	     656.49698	     9.6709458	     28633.653
        597.00	     646.61847	     8.4589505	     28634.864
        598.00	     608.98498	     9.4389879	     28636.073
        599.00	     600.16355	     7.4520459	     28637.283
        600.00	     549.51987	     6.7431099	     28638.493
        601.00	     559.31985	     8.3111500	     28639.713
        602.00	     543.01038	     13.320052	     28640.913
        603.00	     511.93584	     9.8462531	     28642.123
        604.00	     504.21837	     9.2226995	     28643.343
        605.00	     467.77614	     11.093086	     28644.543
        606.00	     440.53553	     9.8534339	     28645.753
        607.00	     432.67285	     6.7123729	     28646.973
        608.00	     431.35969	     9.7415745	     28648.173
        609.00	     438.80559	     11.276758	     28649.383
        610.00	     398.81710	     7.9046052	     28650.593
        611.00	     375.96480	     8.4803082	     28651.803
        612.00	     370.33102	     11.267989	     28653.023
        613.00	     338.13061	     9.9551107	     28654.223
        614.00	     333.91678	     10.137645	     28655.433
        615.00	     321.63835	     9.3598626	     28656.643
        616.00	     315.72677	     9.5496292	     28657.863
        617.00	     292.24912	     7.1915014	     28659.064
        618.00	     269.57800	     4.3383934	     28660.273
        619.00	     278.66652	     10.460595	     28661.483
        620.00	     266.64376	     6.6690532	     28662.693
        621.00	     232.36759	     9.6077534	     28663.903
        622.00	     222.02461	     9.3685754	     28665.113
        623.00	     246.36658	     8.0155065	     28666.323
        624.00	     230.49526	     4.9018203	     28667.533
        625.00	     206.51341	     7.3629891	     28668.743
        626.00	     210.72364	     6.0181421	     28669.953
        627.00	     201.02447	     6.3718049	     28671.163
        628.00	     197.25611	     2.7816300	     28672.373
        629.00	     180.66854	     9.1254109	     28673.583
        630.00	     166.89615	     9.6135284	     28674.793
        631.00	     185.41195	     7.5256286	     28676.003
        632.00	     158.41843	     8.1957110	     28677.213
        633.00	     162.34983	     8.2242985	     28678.423
        634.00	     153.38409	     7.9327811	     28679.643
        635.00	     154.49999	     6.2980119	     28680.843
        636.00	     136.08481	     8.7630899	     28682.053
        637.00	     137.83272	     10.779591	     28683.263
        638.00	     131.01654	     5.8602052	     28684.473
        639.00	     121.07092	     5.5105568	     28685.683
        640.00	     117.85776	     5.9758517	     28686.893
        641.00	     122.59121	     3.6975026	     28688.103
        642.00	     126.21796	     10.582246	     28689.313
        643.00	     113.32759	     6.8435613	     28690.523
        644.00	     107.25991	     5.5811893	     28691.733
        645.00	     100.98594	     8.6290432	     28692.943
        646.00	     101.81275	     5.1512235	     28694.153
        647.00	     103.70972	     6.6040098	     28695.363
        648.00	     99.278629	     10.844971	     28696.573
        649.00	     97.699887	     7.4292984	     28697.783
        650.00	     90.262549	     6.2267629	     28698.993
        651.00	     101.60762	     8.2516123	     28700.203
        652.00	     85.615129	     6.8233945	     28701.413
        653.00	     77.147416	     10.792748	     28702.623
        654.00	     96.608147	     5.8050919	     28703.833
        655.00	     79.131475	     9.6102043	     28705.043
        656.00	     82.793974	     8.4819886	     28706.263
        657.00	     78.809263	     10.569277	     28707.463
        658.00	     64.971344	     11.830416	     28708.673
        659.00	     74.419103	     7.3761833	     28709.883
        660.00	     66.093206	     8.2818099	     28711.093
        661.00	     73.036360	     9.6273448	     28712.303
        662.00	     65.773170	     6.0250534	     28713.513
        663.00	     66.079657	     10.597225	     28714.723
        664.00	     58.592906	     10.547163	     28715.933
        665.00	     63.627020	     9.9546968	     28717.143
        666.00	     55.217196	     5.7105363	     28718.353
        667.00	     44.962556	     5.7147671	     28719.563
        668.00	     48.536528	     10.229371	     28720.773
        669.00	     44.747537	     6.3202735	     28721.983
        670.00	     34.631472	     10.970945	     28723.193
        671.00	     42.121577	     8.3040450	     28724.403
        672.00	     41.168279	     6.2226520	     28725.613
        673.00	     28.140843	     6.1641847	     28726.833
        674.00	     33.453921	     11.283202	     28728.033
        675.00	     40.577205	     7.1182890	     28729.243
        676.00	     29.374237	     7.8580682	     28730.453
        677.00	     31.543937	     8.1426262	     28731.663
        678.00	     32.004210	     10.479379	     28732.873
        679.00	     28.100689	     11.620474	     28734.082
        680.00	     32.032181	     11.996496	     28735.293
        681.00	     37.100871	     10.008584	     28736.502
        682.00	     34.892346	     9.9838061	     28737.713
        683.00	     33.554586	     8.9832041	     28738.923
        684.00	     42.511264	     10.391642	     28740.143
        685.00	     21.127907	     13.641762	     28741.343
        686.00	     30.166011	     14.216694	     28742.563
        687.00	     13.822981	     9.8735579	     28743.773
        688.00	     16.054133	     14.015476	     28744.973
        689.00	     25.440162	     11.090406	     28746.183
        690.00	     36.174933	     13.559514	     28747.393
        691.00	     12.598165	     13.804147	     28748.603
        692.00	     27.693542	     16.938308	     28749.812
        693.00	     35.690120	     13.722935	     28751.023
        694.00	     34.307157	     14.951527	     28752.233
        695.00	     15.855376	     12.237136	     28756.863
        696.00	     41.037376	     12.583908	     28758.063
        697.00	    -4.3699025	     13.328462	     28759.273
        698.00	     20.081189	     14.031736	     28760.482
        699.00	     48.863640	     23.334925	     28761.692
        700.00	     43.612848	     9.5794540	     28762.913
        701.00	     6.3590527	     13.371310	     28764.112
        702.00	     56.059962	     19.461575	     28765.322
        703.00	     2.7681601	     11.899952	     28766.532
        704.00	    -6.1467186	     15.833979	     28767.742
        705.00	     43.151384	     17.459363	     28768.952
        706.00	     37.178131	     17.736900	     28770.163
        707.00	     13.667417	     10.194922	     28771.372
        708.00	     42.449798	     17.114128	     28772.582
        709.00	     47.222795	     19.093905	     28773.792
        710.00	     50.749240	     19.431092	     28775.003
        711.00	     7.4002600	     15.120607	     28776.212
        712.00	    -5.4863987	     14.509901	     28777.422
        713.00	     23.742346	     19.227068	     28778.632
        714.00	     10.737923	     16.784908	     28779.842
        715.00	     57.724482	     25.629578	     28781.052
        716.00	     27.922903	     15.248208	     28782.262
        717.00	     51.799811	     17.895535	     28783.472
        718.00	     22.490612	     20.589997	     28784.682
        719.00	     9.9756088	     21.379050	     28785.892
        720.00	     18.276868	     15.230724	     28787.102
        721.00	     6.9731922	     23.486481	     28788.312
        722.00	     22.248383	     22.218853	     28789.522
        723.00	     49.926210	     20.198509	     28790.742
        724.00	     24.679683	     23.611023	     28791.952
        725.00	     32.118272	     23.001877	     28793.152
        726.00	     77.252979	     38.372501	     28794.363
        727.00	     47.593765	     29.719802	     28795.573
        728.00	     7.7508451	     31.612782	     28796.782
        729.00	     9.7131826	     21.352101	     28797.992
        730.00	     15.561150	     21.812101	     28799.202
        731.00	     29.242694	     21.035783	     28800.412
        732.00	     43.366650	     18.702886	     28801.622
        733.00	     12.297958	     24.641729	     28802.832
        734.00	     42.658384	     24.220666	     28804.042
        735.00	     22.830532	     21.743363	     28805.252
        736.00	     6.6205207	     18.556249	     28806.462
        737.00	    -5.8680596	     23.378909	     28807.672
        738.00	     40.849003	     24.730094	     28808.882
        739.00	     41.391128	     30.112515	     28810.092
        740.00	     74.781009	     25.258960	     28811.302
        741.00	     33.726097	     22.138860	     28812.512
        742.00	     54.509821	     23.755008	     28813.722
        743.00	    -4.1142010	     29.001866	     28814.932
        744.00	    -6.4857446	     26.746760	     28816.142
        745.00	     63.817451	     28.628705	     28817.352
        746.00	     59.938799	     35.064744	     28818.562
        747.00	    -6.7417346	     27.569784	     28819.772
        748.00	     68.698240	     41.318188	     28820.982
        749.00	    -21.693437	     19.514795	     28822.192
        750.00	     10.473224	     14.892319	     28823.402
        751.00	     8.0761369	     27.182080	     28824.612
        752.00	     8.1823548	     28.319893	     28825.822
        753.00	     47.088888	     40.165721	     28827.032
        754.00	     39.844418	     39.037582	     28828.242
        755.00	     27.035194	     22.714793	     28829.462
        756.00	     91.932233	     25.040671	     28830.662
        757.00	     76.626754	     21.982026	     28831.872
        758.00	    -7.7300520	     35.162485	     28833.082
        759.00	     31.293039	     30.092531	     28834.292
        760.00	     40.195818	     33.239705	     28835.502
        761.00	    -53.940182	     30.604359	     28836.712
        762.00	     29.552063	     33.188783	     28837.922
        763.00	     29.882562	     37.581485	     28839.132
        764.00	     113.33333	     40.883123	     28840.341
        765.00	     30.605172	     36.351706	     28841.552
        766.00	    -2.4305366	     39.170284	     28842.762
        767.00	     40.579941	     16.650152	     28843.972
        768.00	     25.495678	     17.618965	     28845.192
        769.00	    -27.645647	     27.784921	     28846.392
        770.00	     48.351371	     48.544451	     28847.602
        771.00	     13.498732	     34.232239	     28848.812
        772.00	     107.69710	     39.046620	     28850.022
        773.00	    -9.1912858	     42.378210	     28851.242
        774.00	    -9.2868000	     31.270282	     28852.442
        775.00	     61.082266	     28.499999	     28853.652
        776.00	    0.67773655	     41.054528	     28854.862
        777.00	     28.087304	     35.172890	     28856.072
        778.00	     90.539342	     47.897438	     28857.282
        779.00	     49.664419	     36.514913	     28858.492
        780.00	     14.839104	     48.285973	     28859.702
        781.00	     125.71259	     25.972773	     28860.912
        782.00	     87.244205	     54.555553	     28862.122
        783.00	     40.863283	     51.654985	     28863.332
        784.00	     4.4225552	     22.785050	     28864.542
        785.00	     78.806770	     28.364299	     28865.752
        786.00	    -32.995134	     48.790858	     28866.962
        787.00	     102.97946	     27.649105	     28868.172
        788.00	    -3.0562963	     48.924613	     28869.382
        789.00	     89.376139	     51.749405	     28870.592
        790.00	     62.916757	     44.639671	     28871.802
        791.00	    -46.275368	     30.065917	     28873.012
        792.00	    -11.072698	     35.370437	     28874.222
        793.00	     44.663015	     39.521634	     28875.432
        794.00	    -27.200000	     51.708585	     28876.642
        795.00	    -11.119942	     43.099891	     28877.852
        796.00	     24.265458	     29.432994	     28879.062
        797.00	     19.837360	     36.767357	     28880.272
        798.00	     22.810830	     36.975161	     28881.482
        799.00	     54.474493	     31.516137	     28882.692
        800.00	     145.38297	     43.758569	     28883.902
