Title=200311_em_0,1MNaOH_2,0uM_ST488
Comment=
Signature=ISS_Experiment_Ver_1_0
Timestamp=Wed Mar 11 18:59:12 2020
Product=Vinci2
SoftwareVersion=BETA.2.4
BuildNumber=234
RealTimeStart=28983.2028878

AcquisitionType=Photon Counting
AcquisitionFormat=L
AcquisitionSide=Right
Detector Gains=(0.0, 0.0)

Measurable=Intensity
MaxIterations=10

RightEmissionWavelengthBandwidth=8.0
ExcitationWavelengthBandwidth=8.0
Visualization=Y:Intensity,X:EmissionWavelength,PlotType:2D


EmissionWavelength=type:numeric,unit:nm,from:400.0,to:800.0,step:1.0
ExcitationWavelength=type:numeric,unit:nm,fixed:500.0

Space=EmissionWavelength
Columns=EmissionWavelength,Intensity,IntensityStdError,RealTime
[Data]
        400.00	     2.8816630	     1.6787456	     28992.671
        401.00	     2.8725297	     1.7919511	     28994.151
        402.00	     2.6371924	     1.3891340	     28995.361
        403.00	     4.3423135	     1.4928354	     28996.571
        404.00	     1.5974076	     1.4311926	     28997.781
        405.00	     2.7352297	     1.4985323	     28998.990
        406.00	     3.7503882	     2.0821710	     29000.201
        407.00	     1.9296316	     1.5270905	     29001.411
        408.00	     3.5142683	    0.84917589	     29002.631
        409.00	     1.9259509	     1.7260138	     29003.831
        410.00	     4.6450354	     1.9126152	     29005.041
        411.00	     1.9262921	     1.5705417	     29006.251
        412.00	     3.8548057	     1.0112507	     29007.461
        413.00	     2.7219381	     1.7634989	     29008.671
        414.00	     4.0847021	     1.8682352	     29009.881
        415.00	     3.7505604	     1.3345869	     29011.091
        416.00	     1.5928617	     1.0965588	     29012.301
        417.00	     6.4905079	     1.1059524	     29013.511
        418.00	     4.4482471	     1.2954455	     29014.721
        419.00	     5.7103398	     1.8193604	     29015.931
        420.00	     4.1195732	     1.2182279	     29017.140
        421.00	     3.5592539	     1.3931054	     29018.351
        422.00	     4.8320008	     1.2742099	     29019.561
        423.00	     4.2588818	     1.3005667	     29020.770
        424.00	     5.0667890	     1.6447323	     29021.981
        425.00	     2.3129818	     1.8663787	     29023.190
        426.00	     5.0964231	     1.0474431	     29024.400
        427.00	     3.8372483	     1.7681567	     29025.610
        428.00	     3.0289041	     1.5337452	     29026.820
        429.00	     3.9694780	     1.1252172	     29028.030
        430.00	     4.6902568	     1.0661096	     29029.240
        431.00	     3.7662973	     1.2916891	     29030.461
        432.00	     3.0700236	     1.5939292	     29031.660
        433.00	     3.5527506	     1.3583074	     29032.870
        434.00	     4.2758737	     1.5333692	     29034.080
        435.00	     6.4371631	    0.55629804	     29035.290
        436.00	     6.0915593	     1.7468371	     29036.500
        437.00	     4.4353222	     1.8523387	     29037.710
        438.00	     5.6622135	     1.6985264	     29038.930
        439.00	     3.3840799	     1.8178172	     29040.130
        440.00	     7.8888275	    0.81816237	     29041.350
        441.00	     8.6517201	     1.6272728	     29042.550
        442.00	     5.6296090	     1.3155756	     29043.770
        443.00	     7.1339759	     1.5751632	     29044.970
        444.00	     6.0474293	     2.1380396	     29046.180
        445.00	     8.5375077	    0.97688219	     29047.390
        446.00	     7.0869061	     1.1932676	     29048.600
        447.00	     6.9923120	     1.5573117	     29049.820
        448.00	     4.3974339	     1.2487080	     29051.020
        449.00	     6.8197366	     1.2740906	     29052.231
        450.00	     6.9786698	     2.1269786	     29053.440
        451.00	     6.6137275	    0.91323110	     29054.650
        452.00	     8.7023314	     1.3462791	     29055.860
        453.00	     5.7743851	     1.3037065	     29057.070
        454.00	     8.3899898	     2.5194780	     29058.280
        455.00	     3.6306280	     1.4177792	     29059.490
        456.00	     8.7390223	     1.8286505	     29060.700
        457.00	     9.0418703	     1.9539411	     29061.910
        458.00	     8.8294578	     1.3097514	     29063.120
        459.00	     8.7377554	    0.73843744	     29064.330
        460.00	     11.949463	     1.3741152	     29065.540
        461.00	     6.5416074	     1.7355285	     29066.750
        462.00	     13.583263	     1.3184678	     29067.960
        463.00	     11.605709	    0.92188474	     29069.170
        464.00	     14.112573	     1.4275169	     29070.380
        465.00	     16.676039	     2.5547776	     29071.590
        466.00	     14.963687	     2.3605505	     29072.800
        467.00	     19.989189	     3.1196744	     29074.010
        468.00	     20.122149	     1.3792278	     29075.220
        469.00	     19.920729	     2.3681986	     29076.430
        470.00	     20.137325	     1.8029506	     29077.640
        471.00	     23.266342	     2.3823467	     29078.850
        472.00	     33.576204	     1.4080331	     29080.060
        473.00	     30.322279	     2.2861175	     29081.270
        474.00	     36.790367	     1.4699848	     29082.480
        475.00	     37.742304	     2.5697589	     29083.700
        476.00	     45.461469	     2.5700743	     29084.900
        477.00	     49.336683	     1.4881401	     29086.110
        478.00	     65.640361	     4.2930130	     29087.320
        479.00	     76.147904	     2.2962708	     29088.530
        480.00	     88.635523	     2.0815732	     29089.740
        481.00	     104.19648	     2.1074245	     29090.950
        482.00	     123.15410	     3.3367057	     29092.160
        483.00	     150.43757	     3.2470185	     29093.370
        484.00	     182.84296	     4.2402943	     29094.580
        485.00	     227.25177	     4.6495055	     29095.790
        486.00	     269.41975	     3.9224480	     29097.000
        487.00	     336.03346	     3.5895325	     29098.210
        488.00	     407.35003	     4.9243722	     29099.420
        489.00	     508.77530	     3.9834028	     29100.630
        490.00	     597.77462	     5.7403255	     29101.840
        491.00	     753.09573	     7.7155942	     29103.050
        492.00	     909.08410	     5.8318783	     29104.260
        493.00	     1111.7026	     8.7223205	     29105.470
        494.00	     1352.6156	     4.3579455	     29106.680
        495.00	     1672.7777	     10.895228	     29107.890
        496.00	     2060.0144	     10.437963	     29109.100
        497.00	     2585.4907	     7.6846939	     29110.310
        498.00	     3277.0671	     13.195648	     29111.520
        499.00	     4126.5146	     17.066954	     29112.730
        500.00	     5034.5266	     19.769109	     29113.940
        501.00	     5836.9395	     15.509200	     29115.150
        502.00	     6539.5337	     21.844163	     29116.360
        503.00	     7211.7844	     11.198446	     29117.570
        504.00	     7905.8749	     18.913580	     29118.780
        505.00	     8746.3775	     23.823457	     29119.990
        506.00	     9793.6990	     28.909782	     29121.200
        507.00	     11026.587	     19.116585	     29122.410
        508.00	     12391.530	     36.347250	     29123.620
        509.00	     13863.555	     26.609359	     29124.830
        510.00	     15368.810	     40.027954	     29126.040
        511.00	     16919.516	     32.455227	     29127.250
        512.00	     18507.718	     40.768822	     29128.460
        513.00	     20086.442	     50.192159	     29129.670
        514.00	     21710.918	     45.177148	     29130.880
        515.00	     23289.518	     34.043922	     29132.090
        516.00	     24733.510	     35.162174	     29133.310
        517.00	     26041.613	     35.388419	     29134.510
        518.00	     27353.296	     67.823953	     29135.720
        519.00	     28540.743	     32.556643	     29136.930
        520.00	     29491.044	     27.784693	     29138.140
        521.00	     30275.674	     44.577090	     29139.350
        522.00	     30948.543	     45.356677	     29140.560
        523.00	     31560.803	     34.211143	     29141.770
        524.00	     31945.279	     26.670143	     29142.980
        525.00	     31976.197	     28.757329	     29144.190
        526.00	     31980.208	     54.982963	     29145.400
        527.00	     31849.577	     39.273486	     29146.610
        528.00	     31654.004	     47.525767	     29147.820
        529.00	     31229.056	     50.545758	     29149.030
        530.00	     30788.284	     52.023441	     29150.240
        531.00	     30057.036	     34.631895	     29151.450
        532.00	     29442.003	     46.626612	     29152.660
        533.00	     28736.789	     57.581488	     29153.870
        534.00	     27964.955	     62.267661	     29155.080
        535.00	     27088.705	     48.362517	     29156.290
        536.00	     26228.332	     36.343046	     29157.510
        537.00	     25343.485	     39.707923	     29158.710
        538.00	     24476.041	     33.764681	     29159.920
        539.00	     23506.580	     46.280477	     29161.130
        540.00	     22677.954	     52.581560	     29162.350
        541.00	     21878.608	     35.934111	     29163.550
        542.00	     20901.300	     23.099137	     29164.760
        543.00	     20133.255	     38.241975	     29165.970
        544.00	     19466.688	     50.993745	     29167.180
        545.00	     18597.618	     29.676763	     29168.390
        546.00	     17877.902	     29.895655	     29173.010
        547.00	     17118.751	     31.024886	     29174.220
        548.00	     16420.084	     18.559890	     29175.430
        549.00	     15913.170	     34.049806	     29176.640
        550.00	     15317.259	     25.159021	     29177.850
        551.00	     14695.962	     24.617276	     29179.060
        552.00	     14132.274	     42.285781	     29180.270
        553.00	     13690.455	     41.274920	     29181.480
        554.00	     13177.439	     24.461201	     29182.690
        555.00	     12748.386	     35.273434	     29183.899
        556.00	     12298.722	     31.968813	     29185.110
        557.00	     11945.933	     30.182725	     29186.319
        558.00	     11635.791	     38.783144	     29187.529
        559.00	     11274.942	     38.688234	     29188.739
        560.00	     10949.032	     26.704507	     29189.949
        561.00	     10630.638	     25.456582	     29191.159
        562.00	     10292.592	     25.602974	     29192.369
        563.00	     10036.731	     30.983205	     29193.580
        564.00	     9786.8496	     26.945470	     29194.789
        565.00	     9494.0329	     28.032689	     29195.999
        566.00	     9189.8690	     22.048880	     29197.209
        567.00	     8942.3292	     21.091191	     29198.419
        568.00	     8769.6722	     23.340927	     29199.629
        569.00	     8488.6176	     27.673697	     29200.839
        570.00	     8185.3501	     25.568612	     29202.049
        571.00	     7922.2910	     16.792124	     29203.259
        572.00	     7729.5398	     27.375896	     29204.470
        573.00	     7515.6462	     27.721241	     29205.689
        574.00	     7213.5676	     23.774014	     29206.889
        575.00	     7039.4564	     28.636238	     29208.099
        576.00	     6753.6463	     35.213666	     29209.309
        577.00	     6540.3304	     26.133735	     29210.519
        578.00	     6267.6723	     23.020784	     29211.729
        579.00	     6049.3629	     26.557446	     29212.939
        580.00	     5879.7026	     23.567317	     29214.149
        581.00	     5641.2406	     28.741733	     29215.359
        582.00	     5388.0208	     16.256579	     29216.569
        583.00	     5166.2417	     20.660537	     29217.779
        584.00	     4975.4094	     24.940463	     29218.989
        585.00	     4819.7796	     22.583817	     29220.199
        586.00	     4586.5371	     14.502466	     29221.409
        587.00	     4388.7999	     15.036644	     29222.619
        588.00	     4214.4658	     27.196344	     29223.829
        589.00	     4042.4859	     20.236113	     29225.039
        590.00	     3879.1979	     22.113590	     29226.249
        591.00	     3715.2833	     20.525742	     29227.459
        592.00	     3579.9498	     16.983507	     29228.669
        593.00	     3456.4893	     21.295032	     29229.880
        594.00	     3306.6632	     16.459391	     29231.089
        595.00	     3187.9223	     17.309315	     29232.299
        596.00	     3068.8977	     26.270377	     29233.509
        597.00	     2959.9310	     17.019144	     29234.719
        598.00	     2828.1420	     13.901115	     29235.929
        599.00	     2718.4500	     12.892270	     29237.149
        600.00	     2582.1769	     14.495596	     29238.349
        601.00	     2466.2478	     17.734671	     29239.570
        602.00	     2371.3375	     11.102586	     29240.779
        603.00	     2320.8442	     18.177624	     29241.979
        604.00	     2234.3565	     19.025590	     29243.189
        605.00	     2138.1166	     11.237958	     29244.399
        606.00	     2055.5747	     13.274098	     29245.609
        607.00	     1962.1359	     13.314467	     29246.819
        608.00	     1903.7770	     23.058753	     29248.029
        609.00	     1863.5141	     17.722325	     29249.239
        610.00	     1764.5831	     13.710648	     29250.449
        611.00	     1698.3288	     18.519528	     29251.659
        612.00	     1668.7600	     19.844035	     29252.869
        613.00	     1640.4788	     7.2499779	     29254.080
        614.00	     1542.6955	     16.254992	     29255.289
        615.00	     1484.2134	     16.013629	     29256.499
        616.00	     1458.7739	     13.267291	     29257.709
        617.00	     1410.6204	     11.588172	     29258.919
        618.00	     1354.0654	     13.142979	     29260.139
        619.00	     1302.8160	     12.940873	     29261.339
        620.00	     1252.9424	     10.695856	     29262.549
        621.00	     1225.9027	     8.9722167	     29263.759
        622.00	     1180.2448	     13.518101	     29264.969
        623.00	     1135.8796	     11.443168	     29266.179
        624.00	     1083.7929	     13.407522	     29267.389
        625.00	     1083.2761	     14.097370	     29268.599
        626.00	     1040.8969	     13.294448	     29269.809
        627.00	     1006.2610	     12.524312	     29271.019
        628.00	     977.25808	     19.343742	     29272.229
        629.00	     939.92473	     13.239251	     29273.449
        630.00	     885.54733	     9.1018829	     29274.649
        631.00	     874.09801	     16.060002	     29275.859
        632.00	     828.60739	     14.380847	     29277.069
        633.00	     831.79584	     11.245870	     29278.289
        634.00	     790.54731	     10.137253	     29279.489
        635.00	     752.09246	     10.768360	     29280.699
        636.00	     743.14989	     11.055875	     29281.909
        637.00	     727.49985	     18.517667	     29283.119
        638.00	     687.88686	     10.269911	     29284.329
        639.00	     659.35526	     12.435995	     29285.539
        640.00	     645.96302	     8.1934614	     29286.749
        641.00	     609.11208	     8.5967546	     29287.959
        642.00	     588.28089	     9.9614531	     29289.169
        643.00	     580.25857	     11.845433	     29290.379
        644.00	     536.62295	     9.3287412	     29291.589
        645.00	     530.36722	     10.458946	     29292.799
        646.00	     491.13585	     13.427681	     29294.009
        647.00	     490.85532	     11.959319	     29295.219
        648.00	     472.33935	     12.056652	     29296.429
        649.00	     457.81018	     14.899294	     29297.649
        650.00	     435.93899	     10.788563	     29298.849
        651.00	     415.05529	     15.054586	     29300.059
        652.00	     403.88788	     9.5313818	     29301.269
        653.00	     395.21346	     14.490181	     29302.479
        654.00	     370.80299	     11.206371	     29303.689
        655.00	     369.23868	     10.841953	     29304.899
        656.00	     359.36377	     8.5549309	     29306.109
        657.00	     368.16100	     11.503361	     29307.319
        658.00	     310.95285	     10.086265	     29308.529
        659.00	     302.02301	     12.396868	     29309.739
        660.00	     335.53985	     10.544076	     29310.949
        661.00	     300.66635	     10.381604	     29312.159
        662.00	     290.22411	     14.342496	     29313.369
        663.00	     275.86518	     13.297036	     29314.579
        664.00	     271.50400	     9.1772022	     29315.789
        665.00	     282.81853	     12.000655	     29316.998
        666.00	     265.62377	     13.431752	     29318.209
        667.00	     264.32086	     14.218621	     29319.429
        668.00	     226.70292	     11.578778	     29320.629
        669.00	     230.26021	     11.317349	     29321.839
        670.00	     216.71606	     13.437833	     29323.049
        671.00	     225.89646	     11.960448	     29324.259
        672.00	     217.40018	     11.686297	     29325.469
        673.00	     217.56892	     11.118296	     29326.679
        674.00	     185.71006	     10.742472	     29327.889
        675.00	     169.43053	     18.560174	     29329.099
        676.00	     187.65941	     10.849287	     29330.319
        677.00	     214.49877	     20.302441	     29331.519
        678.00	     164.86493	     14.069019	     29332.729
        679.00	     175.27805	     13.717087	     29333.939
        680.00	     165.14369	     12.708641	     29335.149
        681.00	     178.80810	     15.788987	     29336.358
        682.00	     184.19486	     10.338753	     29337.569
        683.00	     172.06046	     11.461915	     29338.779
        684.00	     150.77328	     12.341441	     29339.989
        685.00	     169.59947	     13.615444	     29341.199
        686.00	     145.57533	     10.440344	     29342.408
        687.00	     140.79694	     16.862310	     29343.619
        688.00	     163.15012	     15.917678	     29344.828
        689.00	     114.58249	     11.774762	     29346.039
        690.00	     138.08489	     12.151464	     29347.248
        691.00	     122.41217	     12.757550	     29348.458
        692.00	     93.305935	     12.702491	     29349.669
        693.00	     131.51268	     18.396419	     29350.878
        694.00	     111.49826	     15.589356	     29352.089
        695.00	     129.96942	     16.069038	     29356.708
        696.00	     141.02347	     15.744346	     29357.918
        697.00	     98.207809	     14.037226	     29359.129
        698.00	     112.54806	     18.019889	     29360.338
        699.00	     115.51744	     15.838165	     29361.548
        700.00	     102.88777	     10.931852	     29362.758
        701.00	     150.90521	     19.158684	     29363.968
        702.00	     122.04204	     14.581537	     29365.179
        703.00	     97.388905	     10.144373	     29366.388
        704.00	     118.32433	     12.947167	     29367.608
        705.00	     120.09602	     12.406301	     29368.808
        706.00	     124.45445	     17.223158	     29370.028
        707.00	     95.671922	     19.101694	     29371.228
        708.00	     136.60127	     22.291960	     29372.438
        709.00	     82.018538	     18.184685	     29373.648
        710.00	     102.90039	     18.152830	     29374.858
        711.00	     104.45752	     20.834760	     29376.068
        712.00	     84.317285	     25.665357	     29377.278
        713.00	     122.22912	     14.728866	     29378.488
        714.00	     94.553380	     16.405161	     29379.698
        715.00	     64.071153	     13.326756	     29380.908
        716.00	     71.188060	     16.681640	     29382.118
        717.00	     103.59962	     23.048336	     29383.328
        718.00	     101.99968	     18.410198	     29384.538
        719.00	     113.27143	     22.346079	     29385.748
        720.00	     98.564539	     18.968338	     29386.958
        721.00	     101.94143	     20.920748	     29388.168
        722.00	     95.061272	     22.076332	     29389.388
        723.00	     113.53083	     18.058902	     29390.588
        724.00	     96.285525	     17.959394	     29391.798
        725.00	     101.29609	     24.289676	     29393.008
        726.00	     88.340212	     31.321564	     29394.218
        727.00	     107.90342	     27.355775	     29395.428
        728.00	     85.628385	     33.035139	     29396.638
        729.00	     86.671476	     16.284147	     29397.848
        730.00	     84.257933	     32.229897	     29399.058
        731.00	     93.114894	     11.894105	     29400.268
        732.00	     139.47652	     19.846755	     29401.478
        733.00	     64.266747	     20.271411	     29402.688
        734.00	     89.341143	     26.795615	     29403.908
        735.00	     2.8538164	     30.303594	     29405.108
        736.00	     35.999081	     28.140255	     29406.318
        737.00	     111.91228	     28.195239	     29407.528
        738.00	     115.73884	     21.463805	     29408.738
        739.00	     11.641255	     25.109763	     29409.948
        740.00	     5.2477901	     22.582893	     29411.158
        741.00	     20.856928	     22.687992	     29412.368
        742.00	     95.504810	     32.727658	     29413.578
        743.00	     55.770280	     19.214111	     29414.788
        744.00	     35.671595	     30.505771	     29415.998
        745.00	     59.594238	     22.134288	     29417.208
        746.00	     84.199741	     26.781140	     29418.428
        747.00	     27.448491	     32.393130	     29419.628
        748.00	     64.313246	     49.554156	     29420.838
        749.00	     82.336454	     33.770638	     29422.048
        750.00	     28.427321	     39.066786	     29423.258
        751.00	     59.056751	     26.986100	     29424.478
        752.00	     62.390456	     31.845626	     29425.678
        753.00	     96.765078	     36.843190	     29426.888
        754.00	     37.747343	     35.557630	     29428.098
        755.00	     115.03210	     41.146968	     29429.308
        756.00	     84.405617	     29.020721	     29430.518
        757.00	     98.908292	     34.656173	     29431.728
        758.00	    -29.263768	     33.699039	     29432.938
        759.00	     96.114334	     34.547584	     29434.148
        760.00	     86.053018	     46.761179	     29435.358
        761.00	     84.353264	     22.244976	     29436.568
        762.00	     67.795910	     34.941071	     29437.778
        763.00	     65.624450	     35.479980	     29438.988
        764.00	     10.087260	     41.121650	     29440.198
        765.00	     94.215921	     47.851581	     29441.408
        766.00	     31.596976	     31.312653	     29442.618
        767.00	     114.97650	     21.125680	     29443.828
        768.00	     82.083647	     26.706409	     29445.038
        769.00	     79.795391	     36.591538	     29446.248
        770.00	     74.435664	     31.257471	     29447.458
        771.00	     23.783480	     42.110139	     29448.668
        772.00	     59.687547	     37.829915	     29449.878
        773.00	     63.682480	     32.106914	     29451.088
        774.00	     87.561257	     31.735870	     29452.298
        775.00	     18.123310	     56.835084	     29453.508
        776.00	     160.62356	     43.528418	     29454.718
        777.00	     87.002137	     47.089828	     29455.928
        778.00	     67.040581	     36.444486	     29457.148
        779.00	    -16.088474	     56.887318	     29458.348
        780.00	    -16.252352	     59.831671	     29459.558
        781.00	     1.4285521	     54.761164	     29460.768
        782.00	     87.965231	     17.661470	     29461.978
        783.00	     96.320595	     42.199492	     29463.188
        784.00	     137.83630	     47.973973	     29464.398
        785.00	    -17.099582	     57.065910	     29465.608
        786.00	     16.497567	     70.656051	     29466.818
        787.00	     111.30868	     49.540659	     29468.028
        788.00	     131.42074	     38.541797	     29469.238
        789.00	     67.032104	     42.686789	     29470.448
        790.00	     67.577258	     29.662634	     29471.658
        791.00	     87.844766	     42.156378	     29472.868
        792.00	     25.309024	     67.007039	     29474.078
        793.00	    -10.368200	     62.134740	     29475.288
        794.00	     29.600000	     79.386537	     29476.498
        795.00	     148.53066	     46.709790	     29477.708
        796.00	     36.789565	     47.416223	     29478.918
        797.00	     146.49127	     33.257325	     29480.128
        798.00	     67.696656	     70.065337	     29481.338
        799.00	    -23.653398	     23.561512	     29482.548
        800.00	     29.641188	     55.719408	     29483.758
