Title=200311_em_MeCN_2,0uM_AT488
Comment=
Signature=ISS_Experiment_Ver_1_0
Timestamp=Wed Mar 11 18:15:55 2020
Product=Vinci2
SoftwareVersion=BETA.2.4
BuildNumber=234
RealTimeStart=26386.0263174

AcquisitionType=Photon Counting
AcquisitionFormat=L
AcquisitionSide=Right
Detector Gains=(0.0, 0.0)

Measurable=Intensity
MaxIterations=10

RightEmissionWavelengthBandwidth=8.0
ExcitationWavelengthBandwidth=8.0
Visualization=Y:Intensity,X:EmissionWavelength,PlotType:2D


EmissionWavelength=type:numeric,unit:nm,from:400.0,to:800.0,step:1.0
ExcitationWavelength=type:numeric,unit:nm,fixed:503.0

Space=EmissionWavelength
Columns=EmissionWavelength,Intensity,IntensityStdError,RealTime
[Data]
        400.00	     21.024613	     1.5823219	     26395.058
        401.00	     25.439123	     1.4976386	     26396.538
        402.00	     25.385843	     1.3933339	     26397.748
        403.00	     24.156976	     2.3631445	     26398.958
        404.00	     23.208051	     1.3289979	     26400.168
        405.00	     22.839168	     1.6027704	     26401.378
        406.00	     25.502640	     1.7210595	     26402.588
        407.00	     23.087474	     1.7425071	     26403.798
        408.00	     26.572403	     1.1853579	     26405.008
        409.00	     27.008629	     1.7123266	     26406.218
        410.00	     26.782594	    0.83081933	     26407.428
        411.00	     24.747188	     1.4010743	     26408.638
        412.00	     28.389511	     1.8359393	     26409.848
        413.00	     29.306200	     1.0115847	     26411.058
        414.00	     28.297909	     1.0211755	     26412.268
        415.00	     27.890531	     1.9036700	     26413.478
        416.00	     30.651210	     1.5400652	     26414.688
        417.00	     30.790058	     2.1935918	     26415.898
        418.00	     30.156834	     2.1044927	     26417.108
        419.00	     29.853656	     1.7811216	     26418.318
        420.00	     30.370409	     1.9617394	     26419.528
        421.00	     33.571801	     1.7012553	     26420.738
        422.00	     35.135549	     1.9648125	     26421.958
        423.00	     34.462411	     2.4892130	     26423.158
        424.00	     32.519573	     2.3335917	     26424.368
        425.00	     33.353197	     2.2923297	     26425.578
        426.00	     34.794671	     1.9071571	     26426.788
        427.00	     34.349187	     1.5624690	     26427.998
        428.00	     36.742937	     1.5263536	     26429.208
        429.00	     37.289744	     1.3753539	     26430.418
        430.00	     38.272495	     1.2507351	     26431.628
        431.00	     40.299381	     2.4425038	     26432.838
        432.00	     40.666005	     2.3824558	     26434.048
        433.00	     39.246052	     1.4605752	     26435.258
        434.00	     34.729597	     2.7702682	     26436.468
        435.00	     39.981935	     1.9486643	     26437.678
        436.00	     37.672113	     1.9280064	     26438.888
        437.00	     40.085723	     1.9427903	     26440.098
        438.00	     39.322266	     1.8155473	     26441.308
        439.00	     45.370843	     1.6038951	     26442.518
        440.00	     43.861881	     1.9938460	     26443.728
        441.00	     40.992094	     1.9412028	     26444.938
        442.00	     45.208208	     1.8822919	     26446.148
        443.00	     41.623059	     1.1273098	     26447.398
        444.00	     46.083879	     2.0408415	     26448.568
        445.00	     43.479423	     1.7542038	     26449.778
        446.00	     47.295773	     1.2433169	     26450.988
        447.00	     48.996129	     2.1124403	     26452.208
        448.00	     49.050234	     1.7768316	     26453.408
        449.00	     50.945958	     2.7155102	     26454.618
        450.00	     48.013248	     1.3481418	     26455.828
        451.00	     51.434450	     2.8325905	     26457.038
        452.00	     47.786037	     1.5027659	     26458.248
        453.00	     50.737597	     2.0713019	     26459.458
        454.00	     56.200024	     1.2943482	     26460.668
        455.00	     55.548609	     2.7997562	     26461.878
        456.00	     60.703597	     2.6321084	     26463.088
        457.00	     53.124264	     2.4728738	     26464.298
        458.00	     63.703879	     2.1524549	     26465.508
        459.00	     58.437049	     2.0741137	     26466.718
        460.00	     62.986946	     1.8376096	     26467.928
        461.00	     66.937999	     1.7627009	     26469.138
        462.00	     70.256403	     2.8830472	     26470.348
        463.00	     70.362986	     1.6398891	     26471.558
        464.00	     79.166106	     2.9526187	     26472.768
        465.00	     81.111162	     2.6493200	     26473.978
        466.00	     82.972956	     3.1717018	     26475.188
        467.00	     96.968243	     2.2422581	     26476.398
        468.00	     104.41314	     1.8129287	     26477.608
        469.00	     111.22175	     3.2887185	     26478.818
        470.00	     129.41028	     3.2713059	     26480.028
        471.00	     138.10337	     1.9544313	     26481.238
        472.00	     151.78711	     3.2406068	     26482.448
        473.00	     174.73035	     3.0975387	     26483.658
        474.00	     193.17090	     3.5801017	     26484.868
        475.00	     213.40248	     5.7958981	     26486.078
        476.00	     238.94780	     1.6578055	     26487.288
        477.00	     278.75954	     6.0055009	     26488.498
        478.00	     309.40147	     3.6739260	     26489.718
        479.00	     363.15788	     3.5673430	     26490.918
        480.00	     412.45853	     4.5370189	     26492.128
        481.00	     466.26438	     4.2148491	     26493.338
        482.00	     540.91919	     4.5880383	     26494.548
        483.00	     624.42143	     6.0662973	     26495.758
        484.00	     762.66435	     3.8221497	     26496.968
        485.00	     876.12422	     6.4875438	     26498.178
        486.00	     1044.3121	     9.3998997	     26499.388
        487.00	     1248.9783	     7.6251925	     26500.598
        488.00	     1521.5703	     8.0147270	     26501.808
        489.00	     1864.6349	     10.871676	     26503.018
        490.00	     2268.1223	     10.223843	     26504.228
        491.00	     2821.8029	     15.330354	     26505.437
        492.00	     3479.2017	     19.400316	     26506.648
        493.00	     4327.7688	     18.961690	     26507.858
        494.00	     5419.0326	     13.108924	     26509.068
        495.00	     6676.3504	     26.544993	     26510.278
        496.00	     8284.1177	     23.745238	     26511.487
        497.00	     10142.226	     22.209561	     26512.698
        498.00	     12441.012	     25.887255	     26513.908
        499.00	     15333.269	     28.893190	     26515.117
        500.00	     18769.588	     29.597825	     26516.327
        501.00	     22887.982	     50.415681	     26517.538
        502.00	     27618.864	     44.221249	     26518.748
        503.00	     32953.526	     39.736411	     26519.958
        504.00	     38861.878	     38.032809	     26521.167
        505.00	     45190.398	     59.638461	     26522.377
        506.00	     52058.105	     93.232177	     26523.588
        507.00	     59255.762	     64.955715	     26524.807
        508.00	     66903.954	     69.725805	     26526.007
        509.00	     74439.877	     73.431132	     26527.218
        510.00	     82048.664	     131.45378	     26528.427
        511.00	     89735.552	     64.441724	     26529.638
        512.00	     97280.816	     67.885754	     26530.847
        513.00	     104011.48	     54.301511	     26532.057
        514.00	     109916.59	     84.901774	     26533.267
        515.00	     115280.72	     87.325638	     26534.487
        516.00	     120212.22	     108.88860	     26535.687
        517.00	     124309.05	     79.350625	     26536.897
        518.00	     127655.83	     80.593961	     26538.107
        519.00	     130536.44	     53.481972	     26539.317
        520.00	     132429.06	     84.104523	     26540.527
        521.00	     134218.20	     53.581644	     26541.737
        522.00	     135451.56	     73.554402	     26542.947
        523.00	     136664.29	     51.936480	     26544.157
        524.00	     137222.49	     72.722038	     26545.367
        525.00	     137174.16	     49.299751	     26546.577
        526.00	     137202.62	     61.679829	     26547.787
        527.00	     136955.87	     67.075856	     26548.997
        528.00	     136651.37	     56.117959	     26550.207
        529.00	     135757.92	     46.358125	     26551.417
        530.00	     134829.94	     54.903712	     26552.627
        531.00	     133479.94	     61.557622	     26553.837
        532.00	     132044.83	     78.477874	     26555.047
        533.00	     130529.65	     49.866654	     26556.257
        534.00	     128679.84	     87.281262	     26557.467
        535.00	     126536.43	     76.292183	     26558.677
        536.00	     124406.17	     76.094913	     26559.887
        537.00	     122146.07	     99.490518	     26561.097
        538.00	     119540.26	     78.624933	     26562.307
        539.00	     116865.62	     114.58270	     26563.517
        540.00	     114343.72	     81.538311	     26564.727
        541.00	     111585.67	     79.616548	     26565.937
        542.00	     108672.53	     70.755585	     26567.147
        543.00	     105690.32	     64.104786	     26568.367
        544.00	     102987.60	     83.517904	     26569.567
        545.00	     100063.09	     79.009362	     26570.777
        546.00	     97233.225	     101.38774	     26575.397
        547.00	     94398.045	     77.183776	     26576.607
        548.00	     91623.779	     91.831910	     26577.817
        549.00	     89255.452	     88.073822	     26579.027
        550.00	     86722.764	     73.118587	     26580.237
        551.00	     84506.842	     54.207365	     26581.447
        552.00	     82334.805	     77.480268	     26582.657
        553.00	     80249.182	     106.29386	     26583.867
        554.00	     78236.422	     80.468848	     26585.077
        555.00	     76626.760	     128.66661	     26586.287
        556.00	     74823.083	     98.274872	     26587.497
        557.00	     73188.036	     109.01458	     26588.707
        558.00	     71670.352	     64.887907	     26589.917
        559.00	     70421.744	     68.215360	     26591.127
        560.00	     69138.159	     53.279171	     26592.337
        561.00	     67605.241	     60.004294	     26593.547
        562.00	     66442.170	     66.874168	     26594.757
        563.00	     65138.344	     84.480771	     26595.967
        564.00	     63732.038	     74.875815	     26597.187
        565.00	     62571.265	     77.187125	     26598.387
        566.00	     61465.357	     37.765350	     26599.597
        567.00	     60026.505	     55.903910	     26600.807
        568.00	     58789.665	     100.38578	     26602.017
        569.00	     57502.952	     83.858858	     26603.227
        570.00	     55895.699	     60.178657	     26604.437
        571.00	     54515.029	     69.360864	     26605.647
        572.00	     53350.078	     74.154874	     26606.857
        573.00	     51960.983	     74.462861	     26608.067
        574.00	     50249.960	     51.722172	     26609.277
        575.00	     48882.434	     39.920043	     26610.487
        576.00	     47388.045	     48.738468	     26611.697
        577.00	     45816.437	     51.355678	     26612.907
        578.00	     44177.139	     59.734078	     26614.117
        579.00	     42732.553	     65.266570	     26615.327
        580.00	     41274.091	     60.159421	     26616.537
        581.00	     39701.598	     48.154495	     26617.747
        582.00	     38220.787	     82.213496	     26618.957
        583.00	     36770.745	     57.581294	     26620.167
        584.00	     35220.763	     79.026433	     26621.377
        585.00	     33898.253	     51.730510	     26622.587
        586.00	     32563.530	     76.194295	     26623.797
        587.00	     31210.192	     58.283310	     26625.007
        588.00	     29975.466	     62.985656	     26626.217
        589.00	     28777.007	     36.126180	     26627.427
        590.00	     27551.760	     44.704779	     26628.637
        591.00	     26369.386	     46.142963	     26629.847
        592.00	     25332.946	     56.688415	     26631.057
        593.00	     24293.565	     57.800166	     26632.267
        594.00	     23256.964	     50.451985	     26633.477
        595.00	     22264.330	     36.395930	     26634.687
        596.00	     21411.991	     77.040769	     26635.907
        597.00	     20514.174	     55.746460	     26637.107
        598.00	     19718.658	     51.015684	     26638.317
        599.00	     19002.711	     35.744868	     26639.527
        600.00	     18283.183	     26.335673	     26640.737
        601.00	     17496.197	     62.379748	     26641.947
        602.00	     16734.691	     27.849789	     26643.157
        603.00	     16122.115	     37.005827	     26644.367
        604.00	     15592.901	     38.474811	     26645.577
        605.00	     14960.198	     36.047098	     26646.787
        606.00	     14613.685	     33.419244	     26647.997
        607.00	     13908.730	     21.181899	     26649.207
        608.00	     13390.106	     33.276873	     26650.417
        609.00	     12958.934	     66.601936	     26651.627
        610.00	     12639.873	     42.038591	     26652.837
        611.00	     12229.988	     55.425425	     26654.047
        612.00	     11819.031	     39.819711	     26655.257
        613.00	     11348.701	     51.634750	     26656.467
        614.00	     11080.042	     34.295727	     26657.677
        615.00	     10636.760	     36.480945	     26658.887
        616.00	     10337.708	     30.828666	     26660.097
        617.00	     9994.4506	     43.165756	     26661.307
        618.00	     9715.9712	     43.741452	     26662.517
        619.00	     9385.9843	     45.768130	     26663.727
        620.00	     9133.1354	     23.200102	     26664.937
        621.00	     8782.1857	     30.869349	     26666.147
        622.00	     8520.9489	     24.352853	     26667.357
        623.00	     8185.3935	     31.227795	     26668.567
        624.00	     7956.6116	     31.008243	     26669.777
        625.00	     7738.5663	     35.716881	     26670.987
        626.00	     7513.4445	     31.411237	     26672.197
        627.00	     7187.9167	     31.578163	     26673.417
        628.00	     7049.5619	     27.747455	     26674.617
        629.00	     6726.0701	     37.893239	     26675.827
        630.00	     6573.4406	     41.014998	     26677.037
        631.00	     6376.6106	     37.443905	     26678.247
        632.00	     6072.0253	     29.062363	     26679.457
        633.00	     5854.0997	     27.169357	     26680.667
        634.00	     5671.0194	     23.602609	     26681.877
        635.00	     5497.6005	     17.345660	     26683.087
        636.00	     5279.6030	     36.985814	     26684.297
        637.00	     5090.0288	     40.491226	     26685.507
        638.00	     4936.2233	     35.397501	     26686.717
        639.00	     4708.6962	     24.162576	     26687.927
        640.00	     4590.4061	     32.724402	     26689.137
        641.00	     4422.7376	     44.277023	     26690.347
        642.00	     4229.4588	     33.568985	     26691.556
        643.00	     4059.1497	     30.432191	     26692.767
        644.00	     3939.6188	     28.375672	     26693.977
        645.00	     3767.7034	     29.118180	     26695.186
        646.00	     3667.5830	     12.296994	     26696.396
        647.00	     3497.6525	     26.991392	     26697.606
        648.00	     3383.5291	     26.439835	     26698.816
        649.00	     3263.2912	     44.518536	     26700.026
        650.00	     3133.6828	     34.895019	     26701.237
        651.00	     3008.7669	     29.153912	     26702.446
        652.00	     2916.4225	     30.158049	     26703.666
        653.00	     2783.5031	     19.807501	     26704.867
        654.00	     2759.3010	     20.561475	     26706.076
        655.00	     2659.4406	     36.144155	     26707.326
        656.00	     2552.2032	     16.051192	     26708.496
        657.00	     2474.6109	     19.444732	     26709.706
        658.00	     2371.5840	     33.621580	     26710.917
        659.00	     2271.5608	     17.457444	     26712.126
        660.00	     2194.5615	     26.726570	     26713.336
        661.00	     2133.0675	     17.445012	     26714.546
        662.00	     2043.9012	     20.195735	     26715.756
        663.00	     1983.2244	     22.064349	     26716.966
        664.00	     1904.0577	     14.359871	     26718.176
        665.00	     1864.6291	     17.872758	     26719.386
        666.00	     1833.2109	     21.333905	     26720.596
        667.00	     1741.8936	     21.249597	     26721.816
        668.00	     1735.5169	     19.738988	     26723.016
        669.00	     1703.5918	     29.200485	     26724.226
        670.00	     1610.9022	     23.399083	     26725.436
        671.00	     1575.0350	     16.452680	     26726.646
        672.00	     1521.0096	     17.417349	     26727.856
        673.00	     1443.3840	     19.467052	     26729.066
        674.00	     1401.9641	     20.507237	     26730.276
        675.00	     1426.9926	     24.347512	     26731.486
        676.00	     1404.2564	     25.852719	     26732.696
        677.00	     1328.4260	     20.184756	     26733.906
        678.00	     1332.2401	     20.833439	     26735.117
        679.00	     1286.6603	     27.075789	     26736.326
        680.00	     1256.5513	     17.867189	     26737.536
        681.00	     1186.5039	     17.421759	     26738.746
        682.00	     1196.6238	     31.482423	     26739.956
        683.00	     1151.2951	     18.370198	     26741.166
        684.00	     1087.5326	     16.591283	     26742.376
        685.00	     1092.1207	     24.176994	     26743.586
        686.00	     1060.8705	     22.144939	     26744.796
        687.00	     992.49004	     17.772404	     26746.016
        688.00	     1014.6212	     31.403742	     26747.216
        689.00	     999.49309	     20.824361	     26748.426
        690.00	     939.72139	     17.848827	     26749.646
        691.00	     952.42124	     21.977244	     26750.856
        692.00	     946.05401	     28.503315	     26752.056
        693.00	     881.65411	     28.786374	     26753.266
        694.00	     844.04404	     20.590997	     26754.476
        695.00	     849.26751	     19.991245	     26759.096
        696.00	     808.95778	     22.150133	     26760.306
        697.00	     793.02231	     20.939500	     26761.516
        698.00	     798.11053	     28.798605	     26762.726
        699.00	     746.71232	     15.022802	     26763.936
        700.00	     704.31135	     19.380696	     26765.146
        701.00	     795.61532	     13.913320	     26766.356
        702.00	     742.42242	     29.060330	     26767.566
        703.00	     721.73483	     20.870007	     26768.776
        704.00	     664.10172	     32.342576	     26769.986
        705.00	     701.33997	     32.025118	     26771.196
        706.00	     636.24701	     20.428881	     26772.406
        707.00	     597.07855	     24.545309	     26773.616
        708.00	     604.90962	     16.657344	     26774.826
        709.00	     615.27711	     25.543458	     26776.036
        710.00	     568.61579	     22.017916	     26777.246
        711.00	     581.48966	     19.333354	     26778.456
        712.00	     539.39962	     25.719446	     26779.666
        713.00	     546.07396	     16.356492	     26780.876
        714.00	     545.24788	     22.563172	     26782.086
        715.00	     532.81812	     25.190238	     26783.296
        716.00	     537.89944	     32.606051	     26784.506
        717.00	     512.69331	     20.415976	     26785.716
        718.00	     512.53253	     16.993058	     26786.926
        719.00	     517.44448	     25.743506	     26788.136
        720.00	     454.63710	     18.693364	     26789.346
        721.00	     472.51679	     16.125565	     26790.556
        722.00	     408.89831	     22.197533	     26791.766
        723.00	     426.76651	     23.526607	     26792.976
        724.00	     428.59225	     25.707085	     26794.186
        725.00	     445.77338	     16.648526	     26795.396
        726.00	     430.25617	     34.783141	     26796.606
        727.00	     398.91568	     28.168009	     26797.816
        728.00	     386.80408	     19.099282	     26799.026
        729.00	     352.28966	     20.281247	     26800.236
        730.00	     390.16736	     33.947111	     26801.456
        731.00	     341.67779	     41.639244	     26802.656
        732.00	     391.86262	     21.249879	     26803.866
        733.00	     362.19469	     28.369191	     26805.076
        734.00	     343.27926	     24.780702	     26806.286
        735.00	     325.33507	     26.871699	     26807.496
        736.00	     369.50781	     23.498331	     26808.706
        737.00	     388.96853	     37.749105	     26809.916
        738.00	     301.26140	     34.335058	     26811.126
        739.00	     322.50587	     26.733315	     26812.336
        740.00	     340.23173	     20.093276	     26813.546
        741.00	     278.68406	     31.378884	     26814.756
        742.00	     303.18272	     30.856947	     26815.966
        743.00	     303.07947	     27.900124	     26817.176
        744.00	     318.72802	     40.680875	     26818.386
        745.00	     271.22417	     25.701660	     26819.596
        746.00	     310.63520	     38.393496	     26820.806
        747.00	     242.22089	     27.157833	     26822.016
        748.00	     254.81688	     49.186860	     26823.226
        749.00	     225.80896	     27.793129	     26824.436
        750.00	     280.78214	     41.067070	     26825.646
        751.00	     213.51287	     35.780938	     26826.856
        752.00	     285.35963	     33.707415	     26828.066
        753.00	     249.93333	     44.888004	     26829.276
        754.00	     253.22176	     30.632228	     26830.486
        755.00	     237.48562	     36.896171	     26831.696
        756.00	     297.30131	     31.360898	     26832.906
        757.00	     216.29396	     39.314297	     26834.116
        758.00	     266.68680	     43.641318	     26835.326
        759.00	     214.02203	     44.752822	     26836.536
        760.00	     239.47649	     39.685804	     26837.746
        761.00	     328.80558	     31.560745	     26838.956
        762.00	     236.41651	     30.600832	     26840.166
        763.00	     244.91982	     34.332517	     26841.376
        764.00	     248.02792	     43.960893	     26842.586
        765.00	     217.83681	     48.598335	     26843.796
        766.00	     220.57120	     46.640292	     26845.006
        767.00	     146.33373	     43.908901	     26846.216
        768.00	     163.54545	     45.187938	     26847.426
        769.00	     174.67023	     42.921756	     26848.636
        770.00	     202.31232	     42.625023	     26849.845
        771.00	     188.33945	     42.327624	     26851.056
        772.00	     235.50630	     19.373013	     26852.265
        773.00	     251.44732	     29.945936	     26853.475
        774.00	     214.25974	     43.512348	     26854.685
        775.00	     132.90427	     30.101753	     26855.895
        776.00	     195.18813	     33.811440	     26857.105
        777.00	     166.46866	     51.581795	     26858.315
        778.00	     161.03562	     31.101301	     26859.526
        779.00	     222.44064	     28.461572	     26860.736
        780.00	     175.24275	     39.131065	     26861.945
        781.00	     198.56874	     33.247741	     26863.155
        782.00	     240.10182	     38.172056	     26864.366
        783.00	     188.26298	     39.295627	     26865.575
        784.00	     260.19366	     47.340625	     26866.785
        785.00	     251.28951	     85.632490	     26867.995
        786.00	     95.985846	     53.318960	     26869.205
        787.00	     199.14411	     56.452607	     26870.416
        788.00	     51.957038	     52.444161	     26871.625
        789.00	     102.47437	     33.214323	     26872.835
        790.00	     188.75027	     57.910005	     26874.045
        791.00	     202.35669	     46.475081	     26875.255
        792.00	     168.46319	     56.558915	     26876.465
        793.00	     130.00128	     52.853615	     26877.675
        794.00	     138.40000	     37.923900	     26878.886
        795.00	     137.41071	     78.417849	     26880.095
        796.00	     111.93421	     48.128753	     26881.305
        797.00	     219.73691	     53.890528	     26882.515
        798.00	     222.95746	     53.527336	     26883.725
        799.00	     80.994970	     49.845705	     26884.935
        800.00	     107.97861	     34.594186	     26886.145
