Title=200311_em_NaOH-EtOH_2,0uM_AT488
Comment=
Signature=ISS_Experiment_Ver_1_0
Timestamp=Wed Mar 11 15:20:28 2020
Product=Vinci2
SoftwareVersion=BETA.2.4
BuildNumber=234
RealTimeStart=15859.8019856

AcquisitionType=Photon Counting
AcquisitionFormat=L
AcquisitionSide=Right
Detector Gains=(0.0, 0.0)

Measurable=Intensity
MaxIterations=10

RightEmissionWavelengthBandwidth=8.0
ExcitationWavelengthBandwidth=8.0
Visualization=Y:Intensity,X:EmissionWavelength,PlotType:2D


EmissionWavelength=type:numeric,unit:nm,from:400.0,to:800.0,step:1.0
ExcitationWavelength=type:numeric,unit:nm,fixed:481.0

Space=EmissionWavelength
Columns=EmissionWavelength,Intensity,IntensityStdError,RealTime
[Data]
        400.00	     2.5128101	     1.7392135	     15868.880
        401.00	     2.9644507	     1.5344078	     15870.360
        402.00	     3.8755262	     1.5763218	     15871.570
        403.00	     2.4911167	     1.1734091	     15872.780
        404.00	    0.54768262	     1.1308177	     15873.990
        405.00	     1.8006929	     1.0778523	     15875.200
        406.00	     3.2730661	     1.6054404	     15876.410
        407.00	    0.99886811	     1.5115436	     15877.620
        408.00	     4.3985035	     1.1560853	     15878.830
        409.00	     1.5634190	     1.3195713	     15880.040
        410.00	     2.0166251	     1.5391067	     15881.250
        411.00	     2.9234315	     1.2209844	     15882.470
        412.00	     3.8321304	     1.0006019	     15883.670
        413.00	     3.1529116	     1.3946808	     15884.880
        414.00	     2.8139059	     1.3123506	     15886.090
        415.00	    0.31822937	     1.6925489	     15887.300
        416.00	     2.8216407	     1.4902270	     15888.510
        417.00	     2.4823346	     1.2753505	     15889.720
        418.00	   -0.13686914	     1.2354779	     15890.930
        419.00	     2.0328810	     1.8653777	     15892.140
        420.00	     2.8379282	     1.1341085	     15893.350
        421.00	    0.89555421	     1.3482236	     15894.560
        422.00	     1.7027050	     1.7756969	     15895.770
        423.00	     4.9264902	    0.98270807	     15896.980
        424.00	     1.1285121	     1.5960863	     15898.190
        425.00	     3.2150447	    0.92919962	     15899.400
        426.00	     1.9459070	     1.7960572	     15900.610
        427.00	     1.6046675	     1.7850692	     15901.830
        428.00	     3.8210790	     1.2377638	     15903.030
        429.00	     4.2963762	     2.1471162	     15904.240
        430.00	     4.9013184	     1.3016108	     15905.449
        431.00	     4.3312419	     1.5515356	     15906.659
        432.00	     5.7621982	     1.3382154	     15907.869
        433.00	     5.5422909	     1.5907987	     15909.080
        434.00	     4.6084417	     1.4579108	     15910.289
        435.00	     4.5060142	    0.83444707	     15911.510
        436.00	     4.8732474	     1.5725315	     15912.709
        437.00	     4.2914739	     1.3520879	     15913.920
        438.00	     4.6743380	     1.1611017	     15915.129
        439.00	     7.7108678	     1.1113572	     15916.339
        440.00	     7.9859207	     2.0085669	     15917.550
        441.00	     10.089612	     1.4735023	     15918.759
        442.00	     10.745210	     1.1688821	     15919.980
        443.00	     15.104349	     1.3818839	     15921.179
        444.00	     16.266351	     2.1412036	     15922.389
        445.00	     21.752085	     1.7715726	     15923.600
        446.00	     25.214466	     2.4293335	     15924.809
        447.00	     24.448120	     2.1726750	     15926.020
        448.00	     31.259473	     2.1007063	     15927.229
        449.00	     25.233025	     1.5230789	     15928.439
        450.00	     26.493568	     2.7657158	     15929.649
        451.00	     25.284789	     1.7356362	     15930.859
        452.00	     19.426675	     1.2719098	     15932.070
        453.00	     20.762123	     1.9361676	     15933.280
        454.00	     15.592473	    0.99982433	     15934.490
        455.00	     14.237248	     2.6393602	     15935.699
        456.00	     14.582428	     1.7547988	     15936.909
        457.00	     15.174617	     2.8054330	     15938.119
        458.00	     16.578295	     1.1989915	     15939.329
        459.00	     18.640545	     2.2415300	     15940.539
        460.00	     23.739599	     2.2894316	     15941.749
        461.00	     24.137196	     1.9499243	     15942.959
        462.00	     25.929239	     2.1292715	     15944.169
        463.00	     30.606684	     2.6703607	     15945.379
        464.00	     31.726149	     1.4871831	     15946.589
        465.00	     32.231230	     1.5008134	     15947.799
        466.00	     28.389820	     1.8778543	     15949.009
        467.00	     35.401542	     2.1474953	     15950.219
        468.00	     31.612590	     1.8276228	     15951.429
        469.00	     33.684142	     1.7306094	     15952.639
        470.00	     33.674083	     1.8053594	     15953.849
        471.00	     31.698628	     1.9741139	     15955.059
        472.00	     34.964587	     2.5535871	     15956.269
        473.00	     43.960186	     2.3324344	     15957.479
        474.00	     47.641378	     2.2462838	     15958.689
        475.00	     112.90999	     2.6566695	     15959.899
        476.00	     431.71022	     3.3606142	     15961.109
        477.00	     1412.8338	     9.6903818	     15962.319
        478.00	     3593.0861	     13.588899	     15963.529
        479.00	     7106.8633	     19.169690	     15964.739
        480.00	     11368.549	     27.431332	     15965.949
        481.00	     14993.695	     35.074113	     15967.169
        482.00	     16474.453	     44.558562	     15968.369
        483.00	     15183.311	     39.335062	     15969.579
        484.00	     11501.489	     31.240262	     15970.799
        485.00	     7052.8579	     18.615525	     15971.999
        486.00	     3325.9309	     13.837442	     15973.219
        487.00	     1120.3889	     7.6329714	     15974.419
        488.00	     275.67537	     3.2829601	     15975.629
        489.00	     64.932097	     2.1367496	     15976.839
        490.00	     36.064218	     2.6514735	     15978.049
        491.00	     27.451350	     2.5798162	     15979.279
        492.00	     22.175878	     2.9859302	     15980.469
        493.00	     28.227633	     2.0911953	     15981.679
        494.00	     24.843960	     2.2083271	     15982.889
        495.00	     20.432348	     2.2172393	     15984.099
        496.00	     18.892092	     2.6435236	     15985.309
        497.00	     17.625745	     1.6359494	     15986.519
        498.00	     14.437591	     1.8254435	     15987.729
        499.00	     12.599263	     2.5328517	     15988.939
        500.00	     14.572935	     2.6730624	     15990.149
        501.00	     15.358461	     2.6618202	     15991.359
        502.00	     18.204668	     3.3763065	     15992.569
        503.00	     18.715505	     2.5840192	     15993.779
        504.00	     15.244301	     1.8485148	     15994.989
        505.00	     21.790339	     4.0695996	     15996.199
        506.00	     20.955629	     2.3694804	     15997.409
        507.00	     17.943863	     2.2687655	     15998.619
        508.00	     21.239523	     1.4404705	     15999.829
        509.00	     29.299826	     2.7495545	     16001.039
        510.00	     23.951611	     2.1973828	     16002.249
        511.00	     21.428033	     3.8487914	     16003.459
        512.00	     24.999623	     3.9530838	     16004.669
        513.00	     24.262126	     3.3090795	     16005.879
        514.00	     27.467665	     3.3380823	     16007.089
        515.00	     24.226857	     2.1016915	     16008.299
        516.00	     31.157334	     3.0020263	     16009.509
        517.00	     34.505821	     2.1469091	     16010.719
        518.00	     31.907128	     1.8881205	     16011.929
        519.00	     31.394634	     2.9352900	     16013.139
        520.00	     28.610972	     2.6233385	     16014.349
        521.00	     39.698224	     3.9087257	     16015.559
        522.00	     36.609439	     2.1556263	     16016.769
        523.00	     42.879271	     3.8108990	     16017.979
        524.00	     35.987268	     2.5964107	     16019.189
        525.00	     45.014985	     2.8381945	     16020.399
        526.00	     41.407488	     2.3385191	     16021.609
        527.00	     40.642583	     3.3052321	     16022.819
        528.00	     42.186661	     3.9464960	     16024.029
        529.00	     32.684619	     2.1850068	     16025.239
        530.00	     38.084479	     3.0574203	     16026.449
        531.00	     34.676247	     2.2047578	     16027.659
        532.00	     35.623177	     3.3755575	     16028.869
        533.00	     37.819687	     3.4845377	     16030.079
        534.00	     33.199687	     3.0623814	     16031.289
        535.00	     30.434883	     2.1232950	     16032.499
        536.00	     33.291400	     3.9215819	     16033.709
        537.00	     34.288971	     2.0235657	     16034.919
        538.00	     32.565719	     2.8084755	     16036.129
        539.00	     30.398171	     1.9692136	     16037.339
        540.00	     29.081658	     3.7922619	     16038.549
        541.00	     30.337925	     3.5722243	     16039.759
        542.00	     28.337684	     2.7655088	     16040.969
        543.00	     27.628665	     3.4866512	     16042.179
        544.00	     25.632100	     3.1120355	     16043.389
        545.00	     27.824700	     3.7606503	     16044.609
        546.00	     28.891586	     2.5889669	     16049.219
        547.00	     22.412018	     2.6657412	     16050.429
        548.00	     25.243278	     4.6205815	     16051.639
        549.00	     26.100568	     3.0404153	     16052.849
        550.00	     24.013205	     3.9517707	     16054.059
        551.00	     21.418244	     4.0821182	     16055.269
        552.00	     20.647900	     3.3443504	     16056.479
        553.00	     20.110773	     2.9574805	     16057.689
        554.00	     26.033933	     2.5710280	     16058.899
        555.00	     23.893610	     4.0381437	     16060.109
        556.00	     26.648023	     3.7990597	     16061.319
        557.00	     21.166932	     3.3334449	     16062.529
        558.00	     25.622231	     3.3801592	     16063.738
        559.00	     27.280846	     3.1971848	     16064.959
        560.00	     27.936648	     3.9732786	     16066.159
        561.00	     30.595561	     3.3939676	     16067.369
        562.00	     27.637006	     3.6764958	     16068.578
        563.00	     28.580962	     4.8897744	     16069.789
        564.00	     26.064514	     5.0587540	     16070.999
        565.00	     18.698963	     1.8423193	     16072.209
        566.00	     15.821971	     4.2097608	     16073.418
        567.00	     17.468388	     2.7387658	     16074.628
        568.00	     22.513084	     2.5529281	     16075.838
        569.00	     9.1750241	     5.3106384	     16077.048
        570.00	     17.889125	     3.0652042	     16078.259
        571.00	     19.888641	     3.3173985	     16079.468
        572.00	     19.784055	     4.6361174	     16080.678
        573.00	     10.809005	     3.7397088	     16081.888
        574.00	     15.756650	     1.5863495	     16083.099
        575.00	     21.383392	     2.6558432	     16084.318
        576.00	     12.985348	     2.2834219	     16085.518
        577.00	     15.036773	     4.6432335	     16086.728
        578.00	     17.674637	     4.6085337	     16087.938
        579.00	     24.879407	     4.8393960	     16089.148
        580.00	     22.266424	     3.5117548	     16090.368
        581.00	     16.700248	     3.5130527	     16091.568
        582.00	     10.456792	     4.4218797	     16092.778
        583.00	     16.370621	     5.7681084	     16093.989
        584.00	     9.1617349	     2.6337294	     16095.198
        585.00	     17.518293	     3.1129955	     16096.408
        586.00	     17.367821	     4.6112567	     16097.618
        587.00	     17.198481	     3.5292601	     16098.828
        588.00	     17.309856	     3.8011968	     16100.038
        589.00	     15.325398	     4.1722531	     16101.248
        590.00	     12.979255	     4.3797316	     16102.458
        591.00	     9.9738318	     4.6690827	     16103.678
        592.00	     15.697420	     2.5974614	     16104.878
        593.00	     17.992391	     4.0336894	     16106.088
        594.00	     12.109997	     5.0113432	     16107.298
        595.00	     12.845506	     3.8418691	     16108.508
        596.00	     12.317379	     4.4432908	     16109.718
        597.00	     18.288857	     3.4796589	     16110.929
        598.00	     18.092557	     5.0257102	     16112.138
        599.00	     16.590424	     4.8031215	     16113.348
        600.00	     14.396154	     3.5197219	     16114.579
        601.00	     11.152804	     4.2255158	     16115.768
        602.00	     17.365479	     5.0357757	     16116.978
        603.00	     9.3017066	     3.4949133	     16118.188
        604.00	     14.898929	     5.0947254	     16119.398
        605.00	     11.912095	     5.4961898	     16120.608
        606.00	     13.430533	     3.6855878	     16121.818
        607.00	     13.192975	     4.8741964	     16123.028
        608.00	     6.8674179	     4.4226260	     16124.238
        609.00	     9.1086497	     6.1388151	     16125.448
        610.00	     10.664340	     3.3912573	     16126.658
        611.00	     21.083516	     6.5476421	     16127.868
        612.00	     11.984582	     5.2121645	     16129.078
        613.00	     10.982663	     4.3719012	     16130.288
        614.00	     27.396354	     4.4986228	     16131.498
        615.00	     6.2104187	     4.7625082	     16132.708
        616.00	     10.149744	     5.2118642	     16133.918
        617.00	     5.1642415	     3.0416610	     16135.128
        618.00	     17.496839	     5.8133818	     16136.338
        619.00	     10.075174	     5.3241124	     16137.548
        620.00	     17.074911	     3.7788494	     16138.758
        621.00	     13.582049	     6.4884979	     16139.968
        622.00	     10.005578	     4.9710052	     16141.178
        623.00	     14.305156	     4.3669653	     16142.388
        624.00	     17.847523	     5.4325966	     16143.598
        625.00	     18.043201	     2.6472162	     16144.808
        626.00	     15.230949	     4.5973747	     16146.018
        627.00	     6.6570194	     6.3567356	     16147.228
        628.00	     14.683639	     3.7989047	     16148.448
        629.00	     4.5727522	     5.5129658	     16149.648
        630.00	     14.603413	     5.5441935	     16150.858
        631.00	     10.188478	     4.0619040	     16152.068
        632.00	     9.3843178	     7.0981163	     16153.278
        633.00	     15.152651	     5.3997129	     16154.488
        634.00	     10.574928	     6.8571334	     16155.698
        635.00	     6.3532705	     6.0965727	     16156.908
        636.00	     6.9261804	     4.1163587	     16158.118
        637.00	     14.425503	     4.5873061	     16159.328
        638.00	     18.102286	     6.7688349	     16160.538
        639.00	     16.818220	     7.4450704	     16161.748
        640.00	     21.111912	     4.1978563	     16162.958
        641.00	     14.648611	     7.1160812	     16164.168
        642.00	     13.252886	     7.2618507	     16165.378
        643.00	     4.8949008	     5.4259119	     16166.588
        644.00	     21.667580	     7.8745688	     16167.798
        645.00	     4.4761334	     5.8932608	     16169.008
        646.00	     11.730599	     6.1284074	     16170.218
        647.00	     2.9150841	     6.8810757	     16171.428
        648.00	     18.267268	     6.0542228	     16172.638
        649.00	     1.2643515	     7.3822222	     16173.848
        650.00	     11.180909	     3.5581502	     16175.058
        651.00	     13.114471	     6.3655319	     16176.268
        652.00	     16.883543	     8.7651497	     16177.478
        653.00	     1.9438719	     6.2213181	     16178.688
        654.00	     29.659316	     7.9148045	     16179.898
        655.00	     11.963184	     8.9958189	     16181.108
        656.00	     17.190810	     6.9233782	     16182.318
        657.00	     9.7390309	     7.7478079	     16183.528
        658.00	     11.824785	     6.0832980	     16184.738
        659.00	     8.0346288	     11.161306	     16185.958
        660.00	     1.4687379	     10.210016	     16187.168
        661.00	     25.833231	     9.6405312	     16188.368
        662.00	     8.3586736	     10.072009	     16189.578
        663.00	    -6.8166383	     5.5887024	     16190.788
        664.00	     10.730267	     8.7288074	     16191.998
        665.00	     5.8622648	     6.9435916	     16193.208
        666.00	     21.941570	     14.081927	     16194.428
        667.00	     19.311786	     8.4720952	     16195.628
        668.00	     30.764692	     10.803750	     16196.838
        669.00	     13.803477	     9.0058908	     16198.048
        670.00	     1.6930942	     9.8187453	     16199.268
        671.00	     10.296386	     13.719056	     16200.468
        672.00	     8.0753163	     8.1808760	     16201.678
        673.00	    -5.4673638	     12.752226	     16202.888
        674.00	     12.402429	     6.9661663	     16204.098
        675.00	     13.415321	     14.836743	     16205.318
        676.00	    -2.3499389	     9.7714094	     16206.528
        677.00	     2.7281243	     15.314091	     16207.728
        678.00	     3.6329103	     9.7392822	     16208.938
        679.00	     17.738560	     11.929728	     16210.148
        680.00	     8.1860019	     10.921759	     16211.358
        681.00	    -2.5337180	     8.3154506	     16212.568
        682.00	     7.5294010	     15.871601	     16213.788
        683.00	    -1.6777293	     12.227955	     16214.988
        684.00	     4.9124127	     11.680985	     16216.198
        685.00	     4.0335095	     12.888550	     16217.408
        686.00	     26.468242	     17.884291	     16218.618
        687.00	    -6.7140194	     11.324741	     16219.828
        688.00	     20.268342	     13.298772	     16221.048
        689.00	     20.555651	     6.4448410	     16222.248
        690.00	    -1.8604251	     9.1736369	     16223.458
        691.00	    -1.8897247	     13.412683	     16224.668
        692.00	     26.841433	     9.2311808	     16225.877
        693.00	    -24.658628	     13.294814	     16227.088
        694.00	     18.473085	     16.160583	     16228.298
        695.00	     20.991624	     10.889397	     16232.918
        696.00	     13.376824	     8.5252800	     16234.127
        697.00	     29.669338	     11.010166	     16235.337
        698.00	    -14.243634	     9.0518712	     16236.547
        699.00	     4.5068406	     13.700577	     16237.758
        700.00	     8.1924687	     16.283042	     16238.967
        701.00	     7.0927895	     17.222133	     16240.177
        702.00	     13.394858	     7.3955095	     16241.387
        703.00	    -5.2846692	     16.271048	     16242.597
        704.00	     11.268984	     9.5065224	     16243.807
        705.00	    -4.1591696	     14.653737	     16245.017
        706.00	    -1.5820481	     12.083092	     16246.227
        707.00	     34.570526	     15.632667	     16247.437
        708.00	     21.497013	     18.616573	     16248.647
        709.00	     12.150895	     21.172013	     16249.857
        710.00	    -19.907160	     19.295761	     16251.067
        711.00	     31.024167	     17.293579	     16252.277
        712.00	     14.149133	     15.287205	     16253.487
        713.00	     8.5003462	     16.385648	     16254.698
        714.00	     19.089641	     16.154685	     16255.907
        715.00	     7.2533380	     18.189226	     16257.127
        716.00	     28.843438	     16.930633	     16258.327
        717.00	     5.9288940	     20.149264	     16259.537
        718.00	     21.857073	     22.652626	     16260.747
        719.00	     1.2871753	     20.067371	     16261.957
        720.00	     4.5692171	     19.123692	     16263.167
        721.00	     14.610498	     17.465892	     16264.377
        722.00	     45.170959	     24.386176	     16265.587
        723.00	     52.661893	     18.379816	     16266.797
        724.00	     22.246475	     15.929087	     16268.007
        725.00	     36.706597	     9.8432507	     16269.217
        726.00	    -18.240287	     28.268643	     16270.427
        727.00	     35.967807	     13.390042	     16271.637
        728.00	    -4.0599665	     20.778842	     16272.847
        729.00	    -7.8452629	     21.792397	     16274.057
        730.00	     1.5181609	     16.495331	     16275.277
        731.00	    -17.699525	     18.138340	     16276.487
        732.00	    -29.692481	     16.002953	     16277.687
        733.00	     1.5868333	     30.154472	     16278.897
        734.00	     3.6219382	     14.212499	     16280.107
        735.00	     3.6691926	     30.606789	     16281.317
        736.00	    -6.6205207	     30.406683	     16282.527
        737.00	     12.155266	     20.065141	     16283.737
        738.00	     27.232669	     35.288590	     16284.947
        739.00	    -43.546915	     38.890584	     16286.157
        740.00	    -2.6238951	     34.465125	     16287.367
        741.00	    -2.6625866	     24.260926	     16288.578
        742.00	     10.811865	     20.753188	     16289.787
        743.00	     15.542537	     34.276542	     16290.997
        744.00	    -2.7796048	     24.367458	     16292.207
        745.00	    -7.5079355	     25.510567	     16293.417
        746.00	     51.851818	     20.811139	     16294.627
        747.00	     57.304744	     29.608842	     16295.837
        748.00	     84.776551	     32.113942	     16297.047
        749.00	     66.066376	     28.982419	     16298.257
        750.00	     44.386519	     40.217080	     16299.467
        751.00	    -18.171308	     39.062211	     16300.677
        752.00	     27.615448	     26.952998	     16301.887
        753.00	    -36.739682	     18.193062	     16303.097
        754.00	     9.9611044	     19.557868	     16304.307
        755.00	    -24.384684	     28.764776	     16305.517
        756.00	     7.5266155	     24.636632	     16306.727
        757.00	     67.388067	     30.366394	     16307.937
        758.00	     18.772984	     40.154720	     16309.147
        759.00	    -11.734890	     32.596916	     16310.357
        760.00	     30.571467	     30.429018	     16311.567
        761.00	    -69.433639	     22.733041	     16312.778
        762.00	     68.954815	     30.858816	     16313.998
        763.00	     87.303956	     35.600729	     16315.207
        764.00	     29.075043	     35.780208	     16316.407
        765.00	     59.410039	     35.063021	     16317.617
        766.00	    -9.7221464	     38.216061	     16318.827
        767.00	     23.979056	     22.474434	     16320.037
        768.00	    -28.604907	     24.525930	     16321.247
        769.00	    -94.874835	     43.290626	     16322.457
        770.00	     34.354922	     31.810113	     16323.667
        771.00	     86.134767	     32.565550	     16324.887
        772.00	     83.692321	     36.906904	     16326.087
        773.00	     15.756490	     30.637619	     16327.297
        774.00	     5.9700857	     43.230529	     16328.507
        775.00	     26.178114	     38.769840	     16329.717
        776.00	     87.428015	     46.641429	     16330.927
        777.00	     36.993035	     29.332354	     16332.147
        778.00	     127.16976	     46.420285	     16333.347
        779.00	     27.280456	     36.140774	     16334.557
        780.00	     41.690816	     40.949658	     16335.767
        781.00	     2.8571042	     29.642217	     16336.977
        782.00	     82.197019	     32.155590	     16338.187
        783.00	     79.537461	     39.763338	     16339.397
        784.00	    -52.333570	     38.945187	     16340.607
        785.00	     118.21016	     59.282882	     16341.817
        786.00	     21.746793	     48.162520	     16343.027
        787.00	    -4.5432116	     48.811961	     16344.237
        788.00	     48.900741	     34.075382	     16345.447
        789.00	     30.048874	     41.032239	     16346.657
        790.00	     69.130758	     51.148336	     16347.867
        791.00	    -55.687307	     42.257594	     16349.077
        792.00	    -60.108933	     30.174482	     16350.287
        793.00	     74.970061	     34.560667	     16351.497
        794.00	    -16.800000	     51.033758	     16352.707
        795.00	     78.633877	     39.912156	     16353.917
        796.00	     42.268862	     54.730810	     16355.127
        797.00	    -50.356375	     68.526346	     16356.337
        798.00	     2.9433329	     49.055548	     16357.547
        799.00	     17.202472	     31.696746	     16358.757
        800.00	     80.454654	     41.685968	     16359.967
